ppg
-0.0825687468371158
0.11003776189925739
0.4008961697988046
0.11519779348859878
0.2597747995396366
0.6667385948684548
0.42456854172656017
0.9809791982907623
0.7332656814361881
1.1798965818829934
0.8674847517540017
0.9798269528076194
0.3675494847241747
0.9456630599678357
0.9245968989441535
0.8278514295872663
1.3612432855264245
0.8738027018543637
0.8073863365346782
0.7497751822768135
0.986772797376881
1.0855405749016867
1.0474366663150336
1.2103456006669682
1.447314331494521
1.0749727249839298
1.3874700520059002
0.9014508994400844
1.124597310247883
1.302692318496307
1.1387740089634208
1.20242790778633
1.301885334819864
0.683407011621168
1.0202267461662369
1.1476599935882343
1.1580349257440472
0.9509956010272896
0.8861292329464853
0.5710740907013522
0.9493971573373912
0.8063701577147985
0.7371197483286909
0.6979439635255953
0.7043738371623411
0.42897277447123106
0.4791201083949694
0.5739807484148973
0.16141892652929438
0.5776462637615958
0.39408548580691005
0.33391580040144053
0.061147651043885504
0.30261420840839093
0.1228459626837346
0.06387262139785221
-0.1492535071853492
-0.2153042503761463
-0.2673556544075008
0.11293803007974873
-0.17174475364215053
-0.5075245743411453
-0.13880461639445862
-0.21650734216316492
-0.4991584563668783
-0.6333772179741305
-0.6840714024082509
-0.17796471761201543
-0.7385040197426173
-0.7225807115289791
-1.128901821973912
-0.8225638217939387
-0.670356607647731
-0.7924679909095997
-0.4656489832540422
-0.6302008133229628
-0.7938489087517222
-0.6694082681483751
-0.28789527657720565
-0.3932182415003453
-0.7922581307372153
-0.21416221151897114
-0.4220251778888016
-0.3372102675667303
-0.4808072051043011
-0.43326637867722434
-0.1082953283184081
-0.2688764604225706
-0.28675594640205326
-0.38245448523189535
-0.26498967061721024
0.19740545349348115
-0.02509640118361267
0.2590655061738216
0.22257358276842582
0.33798204183439295
0.3160334550245598
0.3045643745623616
0.5180204767351652
0.5311832055647198
0.5635674312147835
0.7393981533436704
0.3525830953245782
0.540850979677705
0.8576391621414928
1.0142372017988253
0.1627172941007039
0.949778870578186
1.159486930742386
1.185272051246907
1.4323030556167207
1.0657883180402121
0.8558376901539839
1.0549861022971538
1.4087850488435916
1.632755388091908
1.1480119710396224
1.2866269007541182
1.548198729906162
1.0594874190508476
1.4244769730368043
1.5248081158437243
1.6432292045093169
1.2452394267359042
1.458904924656931
1.4605846159989158
1.8282723282615019
1.3139192345246888
1.053224443530858
1.302459385121613
1.3219984067903512
1.2871236657694607
1.2395733352899718
1.4334901697333027
1.1460807072561678
1.0619008145345723
1.2516778349480358
0.8984548258023214
0.8605488552889009
1.2800488333967963
1.1572998745565761
0.7302869715098714
0.9889217378060374
1.0712816239319043
0.840826359708029
0.5660104199702717
0.5595641358994411
0.740213675232964
0.45831057856015056
0.6183707043662723
0.39277017831357924
0.1895965735268897
0.1336940938741874
0.005836135849613566
0.045796990889640066
0.3725446181379307
0.44721483938546003
-0.14363497086768529
-0.14195729104272847
0.13699918689604706
-0.38561082002883934
-0.20229175056103804
-0.18636315317019597
-0.23593251986860864
-0.2092260894259415
-0.48260176758030426
-0.7150232278696037
-0.9232398465947463
-0.601853966058876
-0.44165942508008904
-0.5320966919947896
-0.9595168276960537
-0.5429436585057984
-0.44830246935390183
-0.3870138912279294
-0.5906942345085737
-0.8073743701684821
-0.4092336550107127
-0.22621193517649418
-0.6297719638456456
-0.40363510956654425
-0.39844377638651535
-0.4361125636835068
-0.5648977113445359
-0.32609235907946077
-0.6271015467887213
-0.17461163403878077
0.006033109664878411
-0.33520915189061645
-0.4108360739199088
-0.6121286208930923
0.21188476551574448
0.1073291942872347
0.09777829462934445
0.19809722295044663
0.13861220748389058
0.24355347946716585
-0.01274891145539353
0.4314583813073044
0.3987653269584138
0.08605389807711877
0.603602905952852
0.3566889514820576
0.542573992328263
0.997059627639669
0.6553689050242739
0.4734456963478588
0.7653907402608775
0.9680463622276743
0.920572854940787
1.0153935377580496
0.8944260385583285
1.207088770226101
1.2726338057834894
1.1651861739491725
1.4191640138795762
1.0141297349558895
1.1868547032667893
1.1129049054848534
0.7720939776057246
1.1596059375740604
0.8896374700766531
1.1491568526108584
1.2242565668292955
1.2251141381096862
1.1777430661636044
1.0941614058752753
0.7124314792496605
0.9060217154304531
1.3345508432637065
1.0491828653752189
1.2193835607288395
1.0418657692687294
0.9352322693333125
1.355956959894274
1.0377596503659785
0.5990837851991704
0.7709685853578079
0.9392565584269504
0.7858109028850182
0.3662054612898529
0.25564684342500466
0.48010484746374005
0.5286282889349222
0.4429783234455876
-0.12014430099055332
0.35933297999629704
0.28514116338850193
0.08174510757929714
0.22570701927828168
-0.09300642768797956
-0.3543585838511823
-0.05236115901853423
-0.11589492053882983
-0.5232951591699637
-0.13273387803163517
-0.6532947079934115
-0.24497275020746168
-0.7488084632918786
-0.43405092220595065
-0.8992158865982656
-0.5035289164958758
-1.0244904480678378
-0.7106226926154461
-0.9425257757736916
-1.1022114027444652
-0.9120065871264191
-1.041885843154786
-1.1658731025519484
-1.3269922471160533
-1.0489186375250856
-1.0352218426670805
-1.241567709432877
-1.0642959935746017
-1.0949314415057283
-1.2195189373073783
-1.0332228375545338
-1.305360466105351
-1.0093112988353319
-1.1873143879617476
-1.0003198319728364
-1.1542895619602918
-0.9946171730792297
-1.2042187945947944
-0.7683339414385512
-0.7470836162447776
-0.5705122930006866
-0.9652026298803829
-0.9356464212429304
-0.9547745911025293
-0.7566483264717037
-0.3542463078257393
-0.6361940858012873
-0.3632046711623395
-0.5300673092952592
-0.0948373362691706
-0.26244904454686246
-0.20656398769997675
-0.21368462057647777
-0.29541202058210236
0.047130508143571836
-0.1024151603731493
-0.16287201559597755
0.05768896753542935
0.14998931824448442
0.3275457491603958
-0.4122147162777488
0.09528659563157166
0.24739167194143552
0.05917831288058717
0.19987422500950236
0.6360573964719762
0.5712558266568314
0.40564464560523467
0.1701494351398697
0.4916116562383783
0.5921652926875101
0.6363656866830998
0.5177603099530734
0.9352675991673791
0.5102115307117769
0.9648304628081641
0.694807565420438
0.8237939960165499
0.3382126318587254
0.5198850818447003
0.25129723355124395
0.7439727791645139
0.5753064590535096
0.30949487758457916
0.6031907197751212
0.23741175061390934
0.2901860682887648
0.4538072271071143
0.2602987895178292
-0.05202966819556881
0.18941052250461377
0.15137480152176364
-0.24120123318795028
0.3006670397928459
-0.2545137432665047
-0.07337491164014176
0.4283134842374303
-0.0367390940314814
-0.34275446212562544
-0.39022338125252126
-0.6801524109338205
-0.2954215726967995
-0.34656523585328664
-0.609525780937719
-0.7142646762010554
-0.6710856970302878
-0.8926764008682342
-0.8192083189882104
-1.0194958305058974
-0.648932066038582
-0.8502705915273618
-1.1348060167313223
-0.9347943000037546
-1.1393680223310867
-0.9015341302043633
-0.8673189366440978
-1.4676489567082656
-1.1844396099927879
-1.4715461648161872
-1.4862244747161304
-1.4381122771240837
-1.177550551846837
-1.2155853900520746
-1.3199172861376864
-1.7316146152652538
-1.3787319394193793
-1.4485891895426561
-1.3174620780148871
-1.4096044537409944
-1.3429011656900274
-1.4907871756536029
-1.4408782109205156
-1.3950352338074525
-1.61226371372064
-1.2614954459371277
-1.7984843010115823
-1.5765540960958537
-1.195784907611828
-1.338073055350514
-1.054331468235972
-1.6406879806559973
-1.0043533212191909
-0.9099343390484271
-1.0472879026528927
-1.055545900093612
-0.9302217596613729
-0.8229769198149104
-0.8916328756817691
-0.5681246965515003
-0.4797654508966873
-0.8454410256584288
-0.5809300144238839
-0.3035445174456285
-0.3673941313672937
0.054655980979944174
-0.4130592978497278
-0.11562937628870151
-0.22404348158870213
-0.19939945396553554
0.09154964841559754
0.25736455649142126
-0.2238532173182758
0.06631936907578112
-0.013307455256654221
0.4101546160937937
0.1922792333271483
0.6914515656119549
0.34585154944306296
0.45414965323149475
0.9238022212226018
0.3209943317323786
0.37648439417402446
0.46817367550888755
0.3920534565979
0.774281621103081
0.14620636287612288
0.4994780386852987
0.8867002445749487
0.5514763017368884
0.31075870913689646
0.7758809899754207
0.4434932722839321
0.49847228955493383
0.6508692517170118
0.4999889593156203
0.37308150222829634
0.4052357018159775
0.16200643360836492
0.24802833778704608
0.3209246423558067
0.1165655384360712
-0.032038522622318266
0.25769733331805583
0.15749482983651986
-0.1179335950260392
0.32464572328937247
-0.1706141692216922
0.13341477815658903
-0.06073365205807574
-0.30209045744202295
-0.42479970495175035
-0.5538034004386212
-0.5362553496790488
-0.5631056438875125
-0.7285443977874106
-0.524137688348107
-0.5468813727614419
-0.5661456917480696
-0.8928814962736953
-0.4403872280331479
-0.9988304834672502
-0.8289652536079538
-0.6806072377920478
-1.308080648331021
-1.0892954860445274
-0.9758651727552774
-1.2197946416110461
-1.0437659206173435
-1.4076339092727117
-1.1466365282277673
-1.2560303012594327
-1.0543842230671947
-1.589478655460406
-1.1615304877790953
-1.0406233166543433
-0.9473740486811029
-0.9534763179500116
-1.3538119482525053
-1.1940223591918975
-1.1165115096799898
-1.3144033599225642
-1.1898528017588965
-0.8211393237745965
-0.923729307541896
-1.3109838976989094
-1.0289773452775546
-0.9564775089867485
-0.7510083802431545
-0.8298068260799829
-0.4952165114401034
-0.9107276475853164
-0.834527605366391
-0.6892481345870913
-0.40414797091807075
-0.4536950538616784
-0.36720214693805575
-0.24583500382325435
-0.3687415287286038
0.06231443406792174
-0.05175362641768706
0.07070917268319848
-0.01730912237188698
0.23334456791379035
0.31925935958062535
0.37289101421446336
0.28317723936119465
0.3500236922947272
0.6916752925327387
0.7106294116301647
0.5636078513469764
0.33629890365284637
0.6201406031002648
0.6647828667131052
1.117001641240264
0.9453813049111837
1.1538244413109902
1.227668863411299
1.2893930331962662
1.3205067535667956
0.9895608724260713
1.2159777753056504
1.1756854175418785
0.8147393876781965
0.7340674377250345
1.249405116298469
1.2098472920032668
1.2781443942607114
0.8160642958065987
0.7017816495633642
1.0704028123254687
1.5491427659213752
1.3543075757827023
1.664429564098262
1.0757589762728
1.008013093994549
0.9243815400787142
1.0569616523221286
1.0806228330377867
0.8211615529215983
1.0103073539422343
0.7707439366996272
0.603080945474068
0.801193600946309
0.40274774109499867
0.6823573291528993
0.4472979672296826
0.15230207504856072
0.5241688849377193
-0.1183742780756128
0.320092215363155
-0.090103120697755
0.06285402768491222
-0.09873117619002064
0.06890835863552264
0.40033771973594423
-0.15284627517239707
-0.525499969122238
-0.28907063343188233
-0.3531749819744064
-0.6020327344369003
-0.35921744187163845
-0.5975709533031478
-0.5460355957531025
-0.3170785013294409
-0.29834581541464317
-0.28139896096955264
-0.6144330195392149
-0.20746058005429424
-0.992429611469705
-0.5515387763050712
-0.7647491837059543
-0.61570935111537
-0.36989500948915066
-0.5222315862616282
-0.6284304414800596
-0.5532536916455102
-0.4040266017043361
-0.726956897057387
-0.16587445692969144
-0.3042957549817542
-0.42914984365300546
-0.23262219272004625
-0.6952590753663355
-0.6650675158859312
-0.14002556367177238
-0.3773919029766543
-0.09635216912789679
-0.2838193801937283
-0.12086467112268545
-0.2359125182877066
-0.01268511359910357
0.010160246211557256
-0.12999514961355013
0.15979258183052325
0.18719724642036578
0.21574266963296398
0.23293287457158307
0.2551203043167114
0.319449256078297
0.306625833028914
0.45806842886808563
0.39057852936640447
0.6243395267906786
0.5833109628574751
0.7909838657565266
0.6400932239620621
1.0586110782060745
1.123134976541351
1.035992852899289
1.288314611967948
1.2075211459746256
1.0555104218850038
0.9291945997671924
1.2490928218280897
1.1965442705411649
1.6935785031889166
1.3647166162218922
1.5895069850997374
1.3233121193719783
1.4958931839967249
1.6788443087595168
1.229990257496585
1.7569590873738317
1.6799626669860008
1.431805747188283
1.4271791456646807
1.2785530059117904
1.2663963850503175
1.373413666234369
1.5334816985382964
1.498523728697877
1.214116667153177
1.1719667228973973
1.3726240838174524
1.172081661545855
1.2608384860316897
1.0966296577240973
1.1604144100361227
1.2042126062675114
1.1355717022506142
0.8415988276278328
0.7526611614148451
1.2190820104719893
1.0184428590324321
0.616583213411271
0.7324572432556534
0.8545924400031594
0.7523748781541082
0.723760307144141
0.20814721289124966
0.0897709918015227
0.0032398702835248483
0.2361705784001835
0.040149666250068494
-0.0480342546141882
-0.08250712893971629
0.25649602802002935
-0.17026359985948125
0.09500998715138098
-0.4009641055356627
-0.2932048989008237
-0.14131686333419585
-0.33937787945154296
-0.1913373341878361
-0.762045385447536
-0.31048878354610265
-0.9078028290412341
-0.45593355735562896
-0.0924136088947205
-0.435387034087332
-0.1282782916130621
-0.58308223022122
-0.5303418335695471
-0.8760310384267089
-0.43975361151771664
-0.7230431546014034
-0.5579936788012761
-0.5018416612088568
-0.4330588818587921
-0.24353977859031056
-0.5969882067214927
-0.468316092825135
-0.30885936587987584
-0.31026348692755035
-0.010482403840032128
-0.4081711027171837
-0.41835908164328267
-0.4070671010695557
-0.25788939984311027
0.02568124251043702
0.07965847860237651
0.05093506127265918
0.020303765373681726
-0.14035983759433213
-0.11355902005060742
0.26551610473346676
0.4008583609835277
0.42816504929706767
0.5882836942850618
0.7586654764038738
0.5178583619524998
0.5491802467756743
0.730704479336113
0.6503695422796003
0.6134245198817336
0.9563381633266903
1.085150526320413
0.920135294463482
0.67332091786127
1.1175768602605616
0.7079426082366186
1.0542593573621946
0.8872749463171736
1.1055820029149537
0.8356310638761615
1.1990977466737631
1.2482532599759186
1.1539239318607715
0.9639617161532499
1.20517925672423
0.9342911865325542
1.0837277682379554
1.1926559031485588
1.2371834867624902
1.031743212608458
1.1736509451541195
1.2384018528125862
1.3168147555965473
0.9134719572322217
0.9003371138822576
0.9696525439103592
0.9864235339417058
0.9415928005452165
0.8541083198175135
0.8636567173884647
1.1208886556760442
0.5872192983198853
1.1830540927266664
0.5703927854770802
0.2799557703832222
0.285146975112518
0.25800693106006867
0.1617382852215838
0.4264687383424729
0.30179186915020273
-0.0009897878116876604
0.002846952316004202
-0.28901065765582107
0.24897957107613763
-0.142477419871248
-0.31795185451837044
-0.4299021886645291
-0.8028851198291818
-0.8227929839357229
-0.6311796024302482
-0.62602334738879
-0.7951161411658232
-0.6375812227814899
-0.8746290217464204
-0.7015671430798853
-1.046318109479518
-1.2738789388572513
-0.7491624892298074
-0.6760996194651101
-0.6339807055081901
-0.8796178144946991
-0.9706396808819123
-0.8493260214115536
-1.1758939786022176
-1.3152249184795641
-1.0428697737286499
-1.3194683569275076
-1.3078512463351946
-1.2700473620916966
-0.8320453599152139
-1.2400311306741982
-0.9493034722240694
-1.3106513118340177
-1.1393911729693187
-0.7708043558532949
-1.0899527142661714
-1.0148081559103046
-0.8926954033139356
-1.072312274414771
-0.5687625238325636
-1.0181009834627894
-1.0479005654883748
-0.6798607901644765
-0.6331869744987517
-0.8188818116904701
-0.4754355629433582
-0.4110483917628295
-0.5243441527528473
-0.4259542924233761
-0.5389772062833105
-0.3960989558775501
-0.048898781570514166
-0.13355054070224903
-0.04960749302549361
0.05396205216976174
-0.19186909319333317
0.009490159316538516
0.4369647621468211
0.045158334128630906
0.04249578121714109
0.5309308107165609
0.3025065863311067
0.5523472320763162
0.6002513560143362
0.253622284836122
0.49201036834389555
0.46281653238462356
0.7954068776311388
0.4863999393752516
0.2543713966981609
0.5839830229167045
0.993949208679443
0.5707710396385757
0.6070011956962831
0.5797115033306444
1.0190893862193735
0.44562707586398675
0.44381303559600765
0.6457267964541799
0.8220360345709816
0.5952996381555484
0.7757665786959055
-0.028619048319944662
0.8578671600028489
0.35711794215295734
0.5608723273028842
0.11671903815859719
0.4737119608328921
0.18172633756709244
-0.08844932611190576
-0.5104147730149455
0.012937324039031084
-0.08072886957258912
-0.049285508629568875
0.09861579124223974
-0.10453306450330324
-0.4198162459964112
-0.4455833046094074
-0.7022780681528923
-0.6607501271235156
-0.600954169186615
-0.7106089226818909
-1.0504642560682844
-0.8352191081872251
-0.9541189017828197
-0.6409809001423197
-1.2532322177343804
-0.14003965499057391
-0.7663743965632084
-1.3348752725155517
-1.0725916993409443
-1.347365978081648
-1.3303298887335684
-1.2132947267299579
-1.2668409103632048
-1.1207186218166898
-1.5872620177332522
-1.178817658456768
-1.251261384672942
-1.5014356748181499
-1.3905022184334639
-1.592123744795774
-1.5972875505974926
-1.8041362154460183
-1.646191650577506
-1.1841091993403747
-1.4911124940826581
-1.678209591569697
-1.4920810316530635
-1.6076071670425316
-1.5302845224317991
-1.2182707725101571
-1.0991632957433577
-1.570853247163806
-0.9454472977855434
-1.0355324392905305
-1.3205413442676635
-1.1753885449115278
-0.9166447018692597
-0.8112757473459447
-1.21407084283576
-1.0377573796888564
-0.4802187351944623
-0.7367015473130918
-0.8014172295129185
-0.8975331829973077
-0.7402933588923196
-0.6952774413007068
-0.8902013148928676
-0.421332840933229
-0.19125795086757053
-0.3270147675516831
-0.15414789610389718
-0.4533982706186661
0.2844836950779209
-0.3875410889830309
0.3929408545876589
0.17472622511993174
0.28727892896794316
-0.03843783071463541
0.46855195606031635
0.5160403027177991
0.23044634894853733
0.34682854828900317
0.3481550665973408
0.5679408554761838
0.8279445526003164
0.7130657143173296
-0.03215342058189674
0.49039476778114566
0.7766820474249188
0.2543396772450376
0.7388868237727031
0.8467780430540384
0.6950483341577121
0.5182553338487519
0.6834669550033663
0.3734097391937273
0.13951141368476994
0.6596561154923819
0.6223901455346629
0.1678406621426914
0.4801840119667471
0.23431736426380484
0.5213748732326375
0.15828271001339256
0.4370720189795712
-0.09386832061224476
0.08839853860173547
-0.020414111924321854
-0.021910041215738085
-0.3560718772865222
-0.14461750668109669
-0.15023548742693665
-0.27117972515792393
-0.4536217349296772
-0.39544652639356237
-0.44566974048433505
-0.488567461491639
-0.5107163554848426
-0.6428746381739303
-0.23133785264861434
-0.6068183228973223
-0.5065390857060126
-0.9676014038588694
-0.7304845993816825
-0.7551574319701658
-1.216098942264106
-0.8101400060706139
-0.9759965819746943
-0.9886840283456114
-1.090194540080277
-1.3343557232807268
-1.3464916385461765
-1.507665827036094
-1.0878785293024675
-1.2405380102884829
-1.0958820573565151
-1.1646440679123113
-1.3709644470087765
-1.1174171113553373
-1.0848626884794537
-1.1823318571243397
-1.3049219014827091
-1.23119131920679
-1.2881679782895967
-0.9755650879961337
-1.1492268379144857
-1.0922390542420615
-1.15986502783627
-1.4347790849201403
-1.2551373633540832
-1.0716888665131532
-0.7965317068997929
-0.8823251438494223
-0.5783583142092897
-0.8610723623265875
-0.8259216963326335
-0.4740275911810238
-0.8641684332863263
-0.5341521122385883
-0.30406392577524133
-0.16438511560664026
-0.08796975840446586
-0.1922611875677881
-0.31778042628434255
-0.2838541933105376
-0.019882546964309404
0.4658701943150777
0.10342692218223822
-0.39167854470011654
0.6914854021043132
0.8605750789361322
0.4712078864898884
0.5318544880514484
0.46703478477724025
0.49326295385315055
0.042419848201346165
0.28141822636072783
1.0310569273906753
1.168968078577612
0.7268339422629501
0.7838116195439424
0.6078603709985019
0.8659578980136227
0.8717249615823666
0.8417998343700582
1.35421101032489
1.0699247720212646
1.137149457993075
1.0383144751532938
0.8315157371486969
1.0286510176491506
1.319945061184638
0.9532738518033882
0.9113915633010374
1.1088312764273804
1.181431603821556
1.2184692905946122
0.9923503284484549
1.029622441312074
0.8196683706687656
0.60227276341556
0.8435724710400527
0.5422303254484948
0.8291347474621841
0.5243073774977067
0.31247624812542013
0.4300939403380033
0.45369726204633515
0.5264808610294542
0.3428956526811515
0.33049549434038705
0.4509041530621539
0.12135977602173885
0.17555586385140579
0.08945429091044069
-0.1517025551413714
0.1416477417136409
-0.10137628025733247
-0.23432793615091355
0.05166239521721183
-0.14940950874327796
-0.38441319794770157
-0.48902491945166215
-0.3909105956088157
-0.3256325169057852
-0.5865182171026702
-0.8121721373194541
-0.6695377812555553
-0.5234130301902132
-0.8011925361980738
-0.43042575863309895
-0.8163322576548142
-0.6792036857962223
-0.4104034141209062
-0.555370545519153
-0.6381615485346738
-0.6785747448368625
-0.5992644099641091
-0.5048974137272226
-0.4660196034671257
-0.8777569996805902
-0.6216188107636448
-0.7380669504328714
-0.4742329589592955
-0.35264045594104815
-0.6250012792530857
-0.5977682010221981
-0.2058127988697636
-0.23786519747937757
-0.38512117524855133
-0.2809660514523142
-0.12926789567799152
-0.11322292069837053
-0.14530328516408553
0.2962292482809665
0.21757484881001787
0.14763828171074272
-0.16327846666488455
0.21200670874356517
-0.06576367860072707
0.48566180471762477
0.5159217392058567
0.7914888092055239
0.6002366776673982
0.379864456689628
0.8372026596567859
0.9213425724933657
0.6642938228909635
0.8024154616868739
0.8559158238319099
1.318064247287007
1.2641156553134354
0.8024262306019958
1.073762630341851
1.0980153480655819
0.9347767851465683
1.2151799588886893
1.1545713498250563
1.3964628577159848
1.7348229955499077
1.2445064498929685
1.381775109403831
1.5259192254355547
1.3172762594597924
1.3971615797194832
1.463858140562886
1.5444240310096258
1.3858968877496651
1.5236840603289694
1.4405291542925043
1.9642375810644672
1.4215270900850265
1.1874785749446024
1.4435390280283273
1.1938807003191327
1.4359941417589963
0.7798664739579932
1.0571958911232402
1.029162843888355
1.1702064775497827
1.145964748125938
1.1435689216850267
0.7480043492499518
0.9400890938361359
0.8732859217066609
1.003324964859403
0.41461698950303033
0.7779926923222729
0.791671779970015
0.6718851392469034
0.30057620887860814
0.49937944485624053
0.05276705850185859
0.06584066009274436
0.33081423432668744
0.18025882472829358
-0.103089854992093
-0.11541168837846183
0.07195535885478732
-0.211282390507957
0.050842641152000934
0.07952894515840353
-0.5437856350292807
-0.21097097062844494
-0.12563971925823175
-0.5788402248674849
-0.47991968922570943
-0.09522097361563825
-0.7379712026746761
-0.6150104165431165
-0.7113959289914145
-0.7715420758218812
-0.5509468954956757
-0.627566859570936
-0.7270860601628477
-0.6121034773185872
-0.6908722385436471
-0.650054530237729
-0.4783425015689823
-0.8133623202176626
-0.12080968383364887
-0.41780403214367173
-0.18219160800941547
-0.3274116249633065
-0.33386705114499904
-0.2935789552339321
0.11369503758512362
-0.17776854287817
0.14340364063562183
-0.45198817786430556
-0.3874827440452299
0.11359943228246805
0.2260848558569587
-0.14917638690435736
-0.20372421624356646
-0.007795197310807966
0.40438516508515165
0.37968515189438246
0.2638944905772544
0.5279633336844338
0.47031702381549323
0.3592404312636736
0.9964762183146196
0.6344466992328404
0.9080965951460178
0.957476265377714
0.8676296872258207
0.46866718127900414
0.46272766934642895
0.9706448490498687
0.7113723640311567
1.5089315986674916
1.0023521113873368
1.6285473292385944
0.7839685116605253
1.0602716462416804
1.160479219879601
1.1689910551940497
1.261916056419484
1.4205441551509206
1.4896531158840016
1.3488536912506124
1.1023853509899917
1.1166200093025844
1.5876648241590265
1.404006375409506
1.4245326428511413
0.9160595506591642
1.1392971292299912
1.1908480522656828
0.842623680177188
1.185053360929231
1.1580291365393038
1.0429095063054268
0.8717029329676733
0.9996179328420637
0.9373697288024443
0.40547424778810714
0.7092473466535674
0.5353780146265313
0.2309923850357353
0.6585761878299901
0.40435339164381967
0.3195805090654909
0.6066143761172768
0.4653474961556554
0.3062461293056358
-0.034982054243605856
-0.17277571715797435
-0.05929159872888151
-0.2029246460684554
-0.594838226086809
0.04513028599171004
-0.24818562894765672
-0.3598217258625599
-0.3166044474516633
-0.4815669753877177
-0.1824437747343926
-0.4451762450479199
-0.4785013222128135
-0.8636263101800915
-0.5896183471029174
-0.92910495584927
-0.6532132248258744
-0.6971907314906644
-0.8923682491795331
-0.7929301018625701
-0.7155099080928328
-1.1891750063636528
-0.9481051192881729
-1.1453109742829977
-0.9767023651125057
-1.0522852797405886
-0.9247290728221461
-1.2547412473661064
-0.8495237955068231
-1.1471935636439212
-0.807160362996048
-0.8980169795408444
-1.1268047058794053
-0.8372523242622911
-0.5706726079461713
-1.0903972417425298
-0.6813832173489363
-1.1508122596570936
-0.5435356090817559
-0.4223626322718494
-0.5553105085615101
-0.5573031353618273
-0.23315112900055276
-0.24349877652033025
-0.4056155331984831
-0.3268620530634164
-0.4356507178234297
-0.5048613340878815
-0.18988528775252
0.14701645907792288
0.24784318543877143
0.2947180348406005
0.18556872504514307
0.34389930459822543
0.21912343719820396
0.23328598708086776
0.4195425579319676
0.49693366656238425
0.21423351971245927
0.33794395422522316
0.242797267770599
0.332453202800995
0.5199131343483353
0.49187449088306573
0.6091601348075131
0.5619337960494915
0.4033573731215594
0.8153643921707318
0.5825700444657712
0.7728057813593029
0.5173652309875374
0.6213237499265116
0.899063234737425
0.9709134208622043
0.184826242158106
0.6382590498868237
0.6546785107193125
0.6246343257214664
0.5670489497752691
0.9475843125131111
0.6084802013415043
0.4672707143615925
0.6586490199163959
0.33744638485745376
0.2592847343169745
-0.10288485393465502
0.06955111237353873
0.07611146585596268
0.49415331488249925
0.030883169876650074
-0.03545205975554472
-0.046233508378307364
-0.07088581844642389
-0.147274672526853
-0.33485071930380506
-0.015435005625038745
-0.18638366342568316
-0.5456699594211527
-0.5003153209929383
-0.8405708914628663
-0.9424182511105307
-0.719758135037788
-0.7593198227396312
-1.0102235439140335
-1.0159308606405448
-0.5618015672327283
-0.9556942554730634
-1.1280648115437133
-1.329247180498823
-1.0999913202317975
-1.2967354691855224
-1.5807293576711499
-1.1532399615046418
-1.5830846372486729
-1.3193622115718637
-1.2563260919190629
-1.8244498170921912
-1.5345404070935367
-1.7894503883005728
-1.3987385671097758
-1.511833338771074
-1.3649240008857737
-1.620709640136691
-1.4809575705853086
-1.4017651878026682
-1.5699812681544625
-1.240743961249804
-1.2530720104780912
-1.4196272155697356
-1.4695756204457129
-1.1462203730675395
-1.261561669679072
-1.2316697813086879
-1.2794125665239298
-1.3832373644563607
-0.9203362258899528
-0.7897080190597359
-1.0503277970442155
-0.9600787480753985
-0.7431627291018845
-0.9985984135848622
-0.5321923925105371
-0.716687521873256
-0.5352442322295078
-0.6304374302239789
0.03472776462799121
-0.4651476183394651
-0.32714287355636396
0.2184259343506743
-0.2734655843262582
-0.6321380487625967
-0.21124876339470217
-0.12469294233033884
0.35686817331484677
0.43459629824979557
0.1406917439562092
0.3216954271026601
0.22234416883992347
0.5261696743648958
0.46600742260929207
0.19469136068332688
0.562817898376704
0.2330274752218094
0.8072828364152391
0.44593316878583694
0.7680984888180153
0.3183204053827345
0.699800784738994
0.2689321425958806
1.1876508412820135
0.8707567430743217
0.7938619049844909
0.4493594057344549
0.6090861170592259
0.6272650676192455
0.21927684549748683
0.37505993406818344
0.4580289858777614
0.22687013464724082
0.31768720015691826
0.04956761708323115
0.4001542985454162
0.35344694656367914
0.5424474764485284
-0.12528130016149425
-0.17625393097953368
-0.27634374111331855
0.07443054538452776
0.08262528582767359
-0.35049501512699943
-0.18374474972866023
-0.20839627204836625
-0.137413098125664
-0.34015133160698746
-0.48279767439435495
-0.9928344601306507
-0.9175593008347571
-0.5640333762120951
-0.7436907385256055
-0.75014814431865
-0.8676484719797773
-0.9153841882396042
-0.4522702264910351
-1.0249943682052833
-1.296048223362189
-0.8550308085895847
-0.9586780874373996
-1.1093762880118097
-1.1599609231604335
-1.235246213818712
-1.113075195607069
-1.3571056456737582
-1.1843230867427932
-1.134820692183305
-1.231534138142328
-1.4905384928007415
-1.811634893268015
-1.2086073935021484
-0.9926282099273926
-1.1498494235971093
-1.4341497030640893
-1.3328084892049363
-0.7142594221348901
-1.2030298189290838
-1.5610678125003083
-1.3892999394373609
-1.6148678762430555
-1.229943527542287
-1.1611913331628698
-0.7838004837770436
-0.6717512263987118
-0.5693674478252794
-0.66355791924741
-0.7896746907563156
-0.7745499269402567
-0.8431170850267468
-0.7657816426063582
-0.6140575442991899
-0.31014509746358426
-0.5241038538527331
-0.43464236699814285
0.02313704200208147
-0.2824216726065556
-0.5573820145982097
-0.1487878724118562
-0.03234156171553065
0.12483927448111382
0.17966673601816827
0.03971649873918617
0.29028015709087807
0.22466384482300678
0.4376497955278502
0.5000578343226534
0.9347203911342583
0.5895973063780168
0.5702021973698429
0.7515694595714886
0.9319623342492597
0.5622021020757891
0.8263426724372984
1.2278041281900565
1.119676453056309
0.6511778604212355
1.2079541042138795
0.5777715454680131
0.9604147190954342
1.048311661644741
1.1100204146245547
0.7723258884312783
0.9002909386439883
0.8835262895949546
1.0097003612793642
0.7125525363261026
0.6578931258298745
1.3069804178794924
0.9683173070595538
0.77218526024801
0.9762587291978603
0.7973984468015055
0.7037899921597174
0.2455366418747621
0.4155415239664801
0.6037170782991236
0.5547775197737839
0.16801813581683778
0.49885990535347313
0.4321404223704479
0.2024383752643386
0.3757454812114432
-0.005465304465192694
-0.08223321429984595
-0.016121807226698787
-0.040530647343354126
0.19599587275522187
-0.2832862438985865
-0.503572648993278
-0.37982233206042343
-0.059984403107843864
-0.24727209778246206
-0.4796114037733375
-0.438257303468751
-0.39213817740802137
-0.14744548188657727
-0.4171479032237301
-0.9412167868960414
-0.4203953912110623
-0.8443525268851391
-0.46181552350623345
-0.38686719840060035
-0.6488773610455885
-0.7625538663587381
-0.5685400958122022
-0.8302115952063305
-0.8277007624280964
-0.7197838602872705
-0.8056214551067223
-0.3243360301350234
-0.30342926247949337
-0.8079748299969622
-0.7736365371166876
-0.3414599203842221
-0.6850232875604386
-0.6479644848592877
-0.28532085215270214
-0.4555488014909478
-0.31744225908795043
-0.5154108605751996
-0.03097225602041187
-0.3680974725340266
-0.23213191842937908
0.13593523412865466
-0.0822202888692859
0.12208520132797424
0.1822760528147978
0.1706606667069874
0.39369354434048454
0.22359616407853014
0.4953933708651218
0.4776201582003907
0.3527396946761869
0.30784530004171207
0.6152950849820038
0.660583055056351
0.8076004430392671
0.7654850350040966
0.8192484381216913
1.0685747144578028
1.1112591253954291
1.175610557053059
1.211982297035537
0.8427001793353404
1.5778350953909548
1.5689769076193232
1.0953360820962295
1.4929383831082739
1.4416207896466542
1.5409715258492804
1.3446053575804542
1.544273794666156
1.4323866150722278
1.3896566538446278
1.7487352418436621
1.562339099689868
1.2676480939992358
1.3297546541042877
1.4215471586782396
1.6774676679794687
1.4040153706682137
1.6698890529833599
1.0398936498870877
1.2678966155031024
1.053485344641343
1.0672698844594835
1.3214320286419454
1.2248540952426723
1.4470466258401427
0.9274533095425521
0.8415425916593302
0.867086445203267
0.5698341508226377
0.9798869536394703
0.5156308054030725
0.49517309385111785
0.3305060607561362
0.4545105401218378
0.38881655641954177
0.46408283465409506
0.5525063971274008
0.15127231523062895
0.7175985634595945
-0.057203829358853875
0.08774966169656628
-0.18477025951173925
-0.0861161979118783
-0.1784045254843098
-0.05720353952204349
-0.17672879530955393
0.04906942588339175
-0.1764255145386463
-0.4638974767898466
-0.6704580168986284
-0.5822561538681934
-0.407237660489004
-0.29944001122215236
-0.6025611524835259
-0.7550930264940753
-0.6622803528469704
-0.5566168730457156
-0.3053485890808867
-0.26559753876241565
-0.27997562165125583
-0.2722871435890032
-0.9585831205740141
-0.40364155893461495
-0.5731276274961494
-0.3969769011257645
-0.3793008233640554
-0.3834826336501057
-0.4323533185302289
0.22799423379093436
0.096605536779165
-0.5100645985916074
-0.4751243636959028
0.10422014634120458
-0.3932705144901358
-0.2511738321848479
0.08193887483271811
0.3394482607749477
0.0647078020463921
0.14073228517476732
0.4439417570489319
0.28613712185744283
0.18590737993487294
0.2783427287352065
0.19908062364892803
0.7037418888285282
0.6306469006900277
0.7366985354459956
0.5272602868791894
0.9572584018061088
0.5881919444316348
0.8951984057554471
1.1848988413990336
0.9250976746499521
1.214481193339706
1.244081691828347
0.9152390036401064
1.4251423132600423
1.1485410674200114
1.2927804878814646
1.1708975516682445
1.2460773477130913
1.3954047171048645
1.2807183973990557
1.064880085053901
1.2300278836755405
1.1218347090180352
1.3123470340489183
1.663158984827567
1.103388038298643
1.013777623798596
1.3643565431844131
0.959244649206223
1.2604542864451
1.619170373802987
0.9916900473055823
0.6891318925496865
1.4461505813993862
0.5704881864098426
1.08904205679635
0.9057077642798553
0.6903099182132252
0.770331259664008
0.6553137927237911
0.689622641137717
0.26137095759269435
0.5987457541218884
0.6571023473840631
0.6167396752141394
0.43300880092454275
0.35413730718478476
-7.073082204725467e-05
0.066677738620327
0.23699046424547135
0.14166810269973074
0.17864390233910746
0.13527927324088151
0.04512487040535079
-0.6480947444678052
0.07902117859051241
-0.5251137720529765
-0.37237451612144823
-0.484680128284228
-0.47911732775840965
-0.6762121199112745
-0.6240289480045178
-0.35804803937618096
-0.8032721144714317
-0.6883754119704127
-0.5466963660438087
-0.6921026677725856
-1.0306896999409707
-0.5233327546237901
-0.6949798529688762
-0.7962119020867989
-0.4540392453516663
-0.8278088619248811
-0.8785165602215308
-0.3945953825053633
-1.0952863790158573
-1.081259718480654
-0.6792865720388137
-1.038150895816825
-1.040373767995407
-0.7089323373731053
-0.8632861526101646
-1.0834641291332285
-0.9036862253618491
-0.63016798678678
-0.3741542887724089
-0.5183000931253128
-0.5249611450541792
-0.7343075135526589
-0.16223017037823315
-0.6488200868936828
-0.12387125414514265
0.06305529767001261
0.04553178490392008
-0.37138709792265884
-0.12766702693232784
0.05201417929995361
0.2672715053212439
0.26417985875354427
-0.31506133947127335
-0.009473246635067711
-0.04777628473448549
0.419624537917745
0.35731410094784577
0.3935839666889404
0.9071402233128534
0.4148293182999102
0.5763103174639187
0.5479278727218454
0.8390553540313594
0.6017320658620565
1.0342326495504524
0.8737671323931507
0.7114616420192779
0.7895040771871169
0.6317857945800626
0.735195440011484
0.8471854720518821
0.4584863504965456
0.8865344417981176
0.9649731289243156
1.0430955187009614
0.5174086225013033
0.3246819839738916
0.6420057332068039
0.40570292099894584
0.7214019767819955
0.5296323446920357
0.5775573074051887
0.541508930839099
0.5856235285187028
0.6385988193310519
0.770821029580654
0.9039379620628131
0.09841029636990284
0.1378490146102903
0.46463687880589655
-0.020678828987849063
0.27158695659747567
0.22988326517370705
-0.06361597438079408
-0.20600691285881956
-0.43985420411195053
-0.4251303637274078
-0.14065235648424637
-0.3123885523538728
-0.2359544960216403
-0.2745113757508385
-0.2047687802444772
-0.7696510162908876
-0.8665725216520394
-0.47371603756056624
-0.8188169785169419
-0.9373580719129124
-0.9633186209071359
-0.8684661500370859
-1.0528713045233888
-1.238230579518681
-1.1809464891448993
-1.2706082258746039
-1.513186392397954
-1.4250051047319743
-1.6443936186129497
-1.2365682910874807
-1.4276305258831776
-1.1826846555869222
-1.2214217425444065
-1.4829991092888828
-1.4915014344445627
-1.7011281914492398
-1.554639444242397
-1.4229463742345998
-1.4666036687976958
-1.186736994214443
-1.3033678647521454
-1.1201165010240004
-1.103942538458001
-1.2591640077989206
-1.2815842715763643
-1.056663318323321
-1.388650742587799
-0.9176620017333352
-0.8375801382750367
-1.1253028476827394
-0.38079197127692627
-0.5858381208237886
-0.8939683975753001
-0.9389939026090016
-0.947534723940524
-0.8133587730738379
-0.6024028778439393
-0.4550761233669851
-0.6843449388404845
-0.5250778372408216
-0.04814715736583591
-0.1107339232992221
-0.386192680410452
0.016830054918564596
-0.1527540724001834
-0.15671759416937414
0.07916562212782385
0.05720529799032725
0.1403919211352445
0.4086125105265989
0.16037771342795287
0.13467945653960178
0.14995778949113142
0.0515223606197564
0.5707865856431806
0.2429734489150741
0.6052956390344864
0.7988975710759001
0.46968903086624875
0.8693737659860672
0.7649497673490709
0.29604949207329145
0.453642766918114
0.23196924419526732
0.01355146639932936
0.3795146035977784
0.43046969198489643
0.7558585900300688
0.5911419246287061
0.16681322590353942
-0.013140799249983293
0.05930794646742893
0.44300635790561
-0.13276894401020378
0.36171189557191463
-0.07086624736773584
0.1477324740351939
0.2142667376516295
-0.04551929305970176
-0.5550424879549034
-0.3390286173592588
0.07272667649085401
-0.48791032715106686
0.13481471061235695
-0.5087693847254185
-0.9424055049438086
-0.8602153897466966
-0.2297666707362137
-0.23317401236558447
-0.9944738842720882
-0.7718302981388663
-0.9837889333607541
-1.122215029857769
-0.7286386793889947
-1.044043050146246
-1.4804457800355955
-1.0330119030564697
-1.2550672530889704
-1.0746378183764578
-0.9794911282715812
-1.508594798012264
-1.0192289772791863
-1.5250300332991713
-1.3808946591048685
-1.33853442370554
-1.4876551233282216
-1.401043033826152
-1.3672133213025162
-1.4033217930365172
-1.2784975151416234
-1.6771890238360427
-1.081435820969635
-1.3407601640757099
-1.4332784174943525
-1.3367017707373308
-1.5338402623890044
-1.1475092007273004
-1.1725280450404196
-1.1920679372631935
-1.0946194954518418
-1.083423849935916
-1.0062077991196212
-0.8585032927845162
-1.0727164435642829
-0.7877315585761584
-0.960288997142897
-0.7275884161261892
-0.6629419844100124
-0.5500968547919789
-0.8440208819953843
-0.5577360232112691
-1.1922616404999684
-0.38015139147129906
0.031724712996863136
-0.31324736962416266
-0.13761598513783135
0.10662522011281172
0.29739978273429696
0.37355794747403176
-0.06827772682674732
0.1207588046908834
0.754311409322141
0.35232113550404043
0.3867586253777202
0.5760782600033312
0.23857957864458526
0.6670121493690638
0.7467297799829737
1.054285664375696
0.7143984561085064
0.3458557492451505
0.8909151329780122
1.0384587222326243
0.8196735461955331
0.9716109785199074
1.0116164171069846
0.9788743987183187
0.7315407525287304
0.8254682676290681
0.6424736844069698
0.6664395781409497
0.4878008324857833
0.931849195552002
1.0101790330629852
0.978396184893831
0.6054131025026155
0.4294638506242827
0.6043824640320742
0.4236876656937388
0.43926697083747646
0.685832140227228
0.5528460338236275
0.6360763938661387
0.8341202687280239
0.5110868174791189
0.2290742145852933
0.10277812451936241
0.3036180767122333
-0.27201832010883686
0.19346989619347238
0.31115679777035127
-0.048750729900245954
0.22382238732815024
-0.42906902654746865
-0.31064591046030343
-0.36882409842318137
-0.3487582236960399
-0.42860461261844846
-0.3963705222512249
-0.47638018032533713
-0.16200723024092709
-0.5355546900628193
-0.18909905983819766
-0.5217152019246923
-0.4024549364799248
-0.6571100612982665
-0.37965092756960667
-0.9068000284021722
-1.1480849897544179
-0.4617367509652789
-0.8001008809797242
-0.8664095426771706
-1.0155156731365171
-1.0386369443537053
-1.1191062317884901
-0.3318876173988192
-0.9229428952602122
-0.8351667157876104
-0.6519357893069644
-0.6455568924921629
-0.9726556805034601
-0.4258767803774339
-0.471635972401075
-0.9261154270465514
-0.43852100344005474
-0.9826133989698616
-0.5570929866022334
-0.42420847981328347
-0.5436942389099261
-0.37997597389304005
-0.21023665014703452
-0.5638538193747229
0.002454904405957331
0.21801147861822825
-0.08790122489375213
0.1485970811633277
0.366366991361577
0.08551226172476772
0.36034224248703844
0.19916948246279464
0.13292558549421665
0.8326799861791132
0.05060263485284666
0.5971823296551666
0.34984857448537465
1.3404775116482759
0.694268712604761
1.1940882295960953
0.43651204015078254
0.9451298334011429
1.0705415415847828
1.2879133045570834
1.06116468209642
1.0281500726245412
1.516886139699731
1.5173085569230684
1.385534052437174
1.5770148455966502
1.4359326426268475
1.6469107062476327
1.6234470892511617
1.2538230173846308
1.6865191691186805
1.4164725335483892
1.72043474863015
1.7904368445398684
1.550319937142143
1.3669795259001993
1.0348887890401235
1.072276500503089
1.3015034757296682
1.3369822863480176
1.7406815005404486
0.8581189690234914
1.1605988230915423
0.8893461538178107
0.9886827040190264
0.9418587328104409
0.9128870039998318
1.081525928857008
0.9608475835879631
0.8942811427433435
0.8704657934636144
0.5655754946634842
0.787240465586342
0.4456770500833416
0.43330434455041106
0.2676655672492716
0.1433109572004445
0.2539220865859594
0.24034032066056918
0.10975734649344404
-0.05541130143054601
0.04624372665221327
0.244000172558057
-0.40628711601586226
-0.19083831099374388
0.02576759966014036
-0.33886797914753014
-0.2479762883295933
-0.0640908880384447
-0.45532087467774396
-0.5925241065355592
-0.5443601142105958
-0.6503036597499302
-0.8266725142556355
-0.36058571644715487
-0.4912407289860189
-0.5721710130571096
-0.6556490827857813
-0.6953430698813736
-0.5637632461895509
-0.4873399169745421
-0.22332551658155914
0.06408307755881021
-0.30152542748422584
-0.4068794363187583
-0.4432352163236596
-0.5348682264056299
-0.1267652655012536
-0.15905314590977837
-0.13430365461751737
0.23892472477678378
0.16619624536134148
0.0586428612228172
0.07839087193110061
0.22997365335780556
-0.0320891508973134
0.2602655464096361
0.33518569899269174
0.32803670201463697
0.3625825873076247
0.27057064929943286
0.13805787612594056
0.201936018325645
0.364577753168993
0.2856491393677331
0.6988884445883045
0.5643544220763136
1.0270613949136078
0.931254601491996
0.7341202881079409
1.02917121145572
1.0869288621955655
1.2344446428968698
0.9946211436319241
0.9132442702508703
1.5947686757512956
0.8106740471470368
1.698942117357201
1.0083599675364088
1.2317160175921211
1.43602270718892
1.4000475915367123
1.4319376815881228
1.8118969064303267
1.6056801719736284
1.6328118843629387
1.1712916213818794
1.2803998468923057
1.3229631770909291
1.553302461340336
1.2857209187043295
1.4102462103112718
1.2210363773104973
1.0282262754764273
1.1152478661129464
1.212356678676817
1.5581145338902398
1.2492460266226626
1.0708488825393445
0.8571885662420698
0.9161739573098752
0.7129935526013618
0.9448121093790978
0.8093106202142417
0.54733489290885
0.7760089837463837
0.6500957122385476
0.3195037683440833
0.7368805429297084
0.4163549604845017
0.2583277117136327
0.23525481689846553
-0.04370967591848396
-0.16993139227356535
-0.07206104898783916
-0.0036714109185157495
0.1612618334184469
-0.30992731779548516
-0.22633918737830128
-0.4256328418993203
-0.17708797672733523
-0.4499972853361234
-0.2786039279802439
-0.48686792471716756
-0.31969353983568166
-0.5980243138132745
-0.7977809785135801
-0.3911849883523453
-0.4215590436560324
-0.5670845343499623
-1.1249664231177365
-0.8021824539945622
-0.6569536135346412
-0.9525673460865962
-0.9884976551957121
-0.8726048793704428
-0.8261758020107849
-0.6631646448545667
-1.0969374494100306
-0.755291983233678
-0.5524842470061445
-0.8578792295298535
-0.5222251495658752
-0.8462457912835626
-0.42667401056252247
-0.5870784315978105
-0.322524058298924
-0.5903051559743844
-0.4723122446308956
-0.4497647531666844
-0.32323287659291555
-0.3629122987682807
-0.515712183434035
0.19597865597458256
0.17844450403622908
0.3282778886992374
0.2057392743745351
0.11445018217864157
0.046445383070307586
0.21445587713482092
0.3359291270609557
0.00799688234148034
0.11846683825836915
0.6044739528844455
0.6198114439181593
0.8834885854531668
0.3837778111429914
0.6179543649327515
0.6978270666158225
0.9004809334288087
0.9289083183247143
0.39918335526711635
1.0935787348047887
0.8758592362046955
0.7313798451505165
1.3148066482552268
1.0610690173568498
0.97242682837939
0.7991520176092998
1.0130831453778635
0.8798857662489048
0.7076655617985792
1.0276925939268016
1.1299588781437995
0.9272207666050355
0.9122935664830787
0.9614254481274803
0.845451651317625
0.8466961727967668
0.7617572840823
0.9683863347444122
0.6025673249762215
0.3344761068988895
0.7931089752703246
0.6991115539254171
-0.0627562390890482
0.07307404118286862
-0.05912306910704207
0.3468222347926941
0.23317332107815641
-0.05005788276158041
0.0024926653502997387
-0.17949809477941003
-0.5447322725341156
-0.4528064164044828
-0.3631596599401107
-0.8255029456931803
-0.6284288637079692
-0.4670629690753392
-0.6500880056048168
-0.4120585473386365
-0.7508245856735724
-0.8984180171287038
-0.8247202933579971
-0.8380348781933009
-0.8602656751074862
-1.2419789061966562
-0.4891623383928103
-1.0924342746698135
-1.2394500675679485
-1.1319650902295564
-1.0587697655193966
-0.9727834432240829
-1.1544729862483236
-1.1870638484291758
-1.128993496533755
-1.1987794208799165
-1.6462466742002628
-1.4490214325271076
-1.2244154629903603
-1.0529755161646006
-1.1834241063718602
-1.4940123052499417
-1.4244422896528803
-1.295864401936167
-1.2588777520173733
-1.2851509362762672
-1.282951297091056
-0.8980974135478621
-1.2215737176257635
-1.1631184026956907
-0.8492041014617034
-1.116582996282367
-0.6739235255021742
-0.9153834075924046
-0.9064419562143229
-1.045721776602269
-0.9387226559516566
-0.705301117110786
-0.4512653528577376
-0.2783487449919917
-0.4807742555452586
-0.6017165957604662
0.26935884689545353
-0.558604293588659
-0.2630115829063809
0.007506675843238608
-0.06857776166163299
0.0008231624900766898
0.0815311115869845
0.015775447615805793
-0.07931772351840943
0.16271964121266747
0.2756681129231888
0.38262908390899625
0.3964528239492483
0.662727656434518
0.2862437042416457
0.6656016486173189
0.5402528057639214
0.31979036555097984
0.38156998874429154
0.6049886664500512
0.19332289349614645
0.6819850047439191
0.16679221810743344
0.6015209690057997
0.3297961675688619
0.5787100954866036
0.5434045718452435
0.4494193333248391
0.40061363290972246
0.5600288170186385
0.41203792143939433
0.39937578560669706
0.18195629726898244
0.6033914845542445
0.19289966997339553
-0.19364446779750188
-0.18532206766878118
0.2956415277382373
0.1593154314517547
-0.09228292434767366
-0.03766319089613712
-0.18963277482376345
-0.4645550326709023
-0.8617471148031589
-0.7545876736243752
-0.5590868414153823
-0.8296270201644156
-0.6673278478814484
-0.6115052459131639
-0.6162378593423294
-0.8433190893354587
-0.8633930786269466
-1.1553558958531547
-1.0153337562032483
-1.1781815003798903
-0.9004718936945653
-1.1172706574290838
-1.1187635192933512
-1.1140623442391928
-1.3370628588273772
-1.5282048719781567
-0.97524516188851
-1.1157493502639548
-1.2126307922043504
-1.4998941517677875
-1.4079369148783056
-1.591030436122657
-1.27680842216596
-1.4334193134939959
-1.540372210521166
-1.478259573124502
-1.3352389437527354
-1.3013424784491017
-1.078002999447526
-1.1740031618251363
-1.247202833570645
-1.405025330318367
-0.9061832482710962
-1.1809514541501405
-1.187553120536201
-0.8381225165199231
-0.8563051016435026
-1.3986747519654203
-1.048853482028714
-0.7173907165074784
-0.490362126474043
-0.7502597701766831
-0.9423273988977727
-0.9662240968262296
-0.6837105390145297
-0.6540608275594499
-0.734802683359576
-0.4342624761247339
-0.5147612361163202
-0.3100152417252554
-0.19274733740605993
-0.37940811065179936
-0.20892224664324097
-0.11402582251858662
-0.03474944108642147
-0.055946915278592135
0.34546988518719374
0.1637394833532127
0.2584124859869386
0.21896658181165568
0.5558578891396793
0.5007814412727805
0.4659420445713379
0.49950813740514405
0.5451202654716757
0.4953185615066399
0.6411288756418623
0.8252845995192456
0.6139474814412552
1.2898178617870295
1.0337248065315432
0.7091302845533897
0.5160399385169012
0.8420411245572768
0.7043027389482812
0.5798102310841982
0.795947832849844
0.7551772399497618
0.719689146593393
0.7384870182249024
0.43324418534534037
0.5839047885114774
0.5201319518580199
0.3787399603563387
0.42366437862363315
0.15653687607243097
0.20699552450196576
0.1042820241317298
0.21472504484616098
0.2730425701045436
0.021317584501667153
-0.14175761684144775
-0.01682257852832797
-0.2043304963537274
-0.09872792896115702
-0.5793977748164856
-0.3494480365945798
-0.3679076418595255
-0.18736960415595252
-0.37547928791014773
-0.6310763937628281
-0.7430683994957652
-0.9099973291420702
-0.9430759570269559
-0.9392289480454789
-0.8815581732079747
-0.8634567132792403
-0.5856822485987324
-1.045072122042922
-0.7558659987783163
-0.7437246221281343
-1.0402622252760472
-1.1580214642225934
-1.3291486929932972
-1.265332626514262
-0.8533372368098165
-1.0386775700059852
-1.1374637499575795
-1.070407467132876
-0.6755023335883705
-0.8219938126902607
-1.0850242645864685
-1.3386797275481295
-0.9575709077825268
-0.8031439325409975
-1.0986224180635618
-1.1124318774796857
-0.7715275167591495
-1.1802229178963208
-0.7040140445490446
-0.8025920901139073
-0.8467936463497265
-0.9197506550452975
-0.5121927962167497
-0.6009181358648846
-0.30766089626359633
0.024339010482874887
-0.18932774987291812
0.05907174454091024
-0.09409966383744336
0.2650421036774969
0.39020241143581724
0.5577748106781506
-0.04843491455396656
0.0026516271934561297
0.302135867353279
0.5590282715039986
0.21843460180084087
0.3827736267090004
0.3540911316732669
0.7966891257945644
0.8226682027139909
1.0689198132683142
1.0488175393300934
0.8697958225495217
1.0618871072960672
0.8956454270978255
0.8816175049420764
0.9863535520442689
1.3266672431621076
1.3223872777402308
1.1792532700833245
1.0484797203731426
1.4426193603788027
1.3804277243993064
1.477435129204176
1.0688842299005317
1.1520921080923177
1.0638109210635973
1.135416433122321
1.4928755887250347
1.023490155992983
1.182623218516363
0.8298637695090574
1.213842693258735
1.242268802832625
1.443151241010559
1.2511938581109416
0.9490185949400626
1.1706003623845262
1.1216672303851734
0.9750386795193839
1.342187952272199
0.6245853333017326
0.4536607295708601
0.833974535623168
0.624854456471604
0.30499085871017606
0.43711838600016606
0.19216968724678754
0.48108144629518534
0.3903529001269513
0.3333968984504976
-0.11817226139245635
0.06362343449666208
-0.3372410738221185
0.23607454047672316
0.31421463241050607
-0.2617323871955951
-0.2646131640653076
-0.40985292352841385
-0.6015435295479525
-0.46731217865937885
-0.5522442925593968
-0.27890864353440464
-0.7218765718835698
-0.715109658410443
-0.1841362889860121
-0.30702298886058543
-0.13738279819808924
-0.4264445947651758
-0.8910846375719528
-0.635846750399139
-0.6195672218873842
-0.13491599632220147
-0.8433676502107468
0.014301298600729873
-0.2623380106042096
-0.38943724789963746
-0.36798097057998447
-0.3315388992085424
-0.5279173212781498
-0.3475759224061512
-0.0880091598237076
-0.4683822894537642
-0.568025364590961
-0.28941678436852647
-0.16291988758738368
-0.2500823275372223
-0.4130355352347679
0.18842170716410994
0.12375582905954469
0.13525867352135368
0.12369299675134787
0.7639076988058138
0.2210341355554596
0.297382957197054
0.5086162292437543
0.45828902765316215
1.10232035615955
0.9407921465528599
0.6645545052117119
0.4783400135563423
0.8242863880144768
1.4225892993968758
0.8724449934162408
1.4435914902326101
1.1467090895907308
1.0447004184402533
0.9668179497854679
1.2182590762388739
1.3946009047485166
1.2910477244710918
1.2777896362245684
1.171438677446826
1.1244657121679449
1.4317092048425581
1.63250665080851
1.6477370609676998
1.6213705566971786
1.6057936612089947
1.0034403968491672
1.5105598682471326
1.352921772886105
1.4354091658139339
1.4467078469549615
1.1217384352791746
1.2791528748425016
1.5791981386091236
1.334464121359975
1.5174399308897724
1.1110190889789342
0.8940560740337959
0.871376541645071
0.656166917001916
0.6888939357611684
1.0903713423061312
1.0915089895491845
0.8759152436002755
0.7440689997167824
0.6595414434044262
0.3893820098008313
0.6366919521910392
0.03272607796069388
0.35189798024315866
0.5773966227953091
0.4275913001964876
0.14001272884178362
0.26197796105626836
0.03944591878555792
0.037969409224993866
0.07827437532851633
0.07947763715728173
-0.21095243207453085
-0.2570956781739901
0.08120836671937898
-0.11458031864647183
-0.09040018628534324
-0.28617175892267477
-0.36097434306738746
-0.5531443943623187
-0.4154633465957862
-0.6693310707389795
-0.36347795867026933
-0.7944949202311875
-0.7465316299622404
-0.6140114196808076
-0.4332631968044836
-0.6893103901883341
-0.7667184649965202
-0.2585347658295662
-0.5313160089796864
-0.28573465271271176
-0.6650363968417231
-0.7507520066270535
-0.6688085253378984
-0.6197068779983514
-0.6658192558733211
-0.30227507776849266
-0.4834340172621211
-0.2982719792853595
-0.5301610254103422
0.13514751574881084
-0.13750250552857157
-0.3518127439658203
-0.3028696425797517
-0.05043340244954553
0.0867470260704516
0.21812228495171557
0.0629850064299882
0.3740115121647174
0.4578551818315709
0.4844047350043521
0.26231638145848934
0.576892345792482
0.79199333728207
0.5164281981254437
0.5942066185836705
0.5848463582685268
0.15904472142075082
0.853448245553428
0.6810524534894138
1.1646107046094183
0.7806772116576449
0.7271928567614938
1.5934635920895974
1.1430609104475773
0.9959149570060871
0.7107573155414114
1.3185715345996099
1.3614728651191437
1.1500331399062438
1.404657934852318
0.7676478224604196
0.9005981443643032
1.207451986071071
1.1130106124188237
1.012894543272186
1.0146754085337664
0.995176271086704
0.982090504362556
0.9806912070981799
0.7517235866451064
0.3793045834473421
0.861152068138688
0.8451204009458907
0.5796235603909337
0.7025291486695526
0.806147819220445
0.48395062356309165
0.532448156643698
0.47810576577202923
0.5047076987871648
0.4620954488771539
0.22910408517515485
0.2043363307739956
-0.02642810105536163
-0.19831849479797015
-0.12707967665227382
0.12709924485079252
-0.2333773730129907
-0.2636252669175514
-0.4372209156118576
-0.17968014775617183
-0.3149821432909643
-0.5920199203538203
-0.4992914781475186
-0.531193992129687
-0.7304158636467479
-0.956818692522645
-0.4527185769025813
-1.262256155772076
-1.0234844003717372
-0.6400150314337459
-1.0817740512212173
-0.8830826318009338
-1.1481778195085974
-0.8192638018987144
-0.9472220903872229
-0.9325799168329523
-1.4334922617803059
-1.0398633947456224
-1.5427857412659172
-1.0084695249410907
-1.2011005545358493
-1.0155639714738158
-0.785049177830031
-1.0332127303092913
-1.0929221431290812
-0.9526475090279944
-1.07618653771017
-1.0751088826802733
-1.351113686372503
-0.84979572987964
-0.4681828565660217
-1.1741251965969803
-0.9485578303795686
-1.0034018218927887
-0.978085889157789
-0.68964545852752
-0.6557081203099737
-0.3706269553601365
-0.5291891925303285
-0.06984591217818004
-0.2091339086959606
-0.524723456671061
0.005003992987936745
0.12226465857580315
-0.08935190604667656
-0.027164823961921103
0.050639566885288256
0.038567506850443245
0.3693463763416699
0.46349666651288757
0.4933324135842885
0.1168808233208824
0.6163269974891782
0.07488638298247818
0.21722644084308662
0.7218459166853011
0.5943046210263467
0.7141068215213848
0.7184137395724991
0.7006793827370817
0.5558098265272358
0.657487560854275
0.8231730302405029
0.5834700668133517
0.5609621891481609
0.687172686905428
0.47368390447346276
0.6807203364416488
0.3811108679589374
0.758595900259496
0.7110200259237303
0.637302102371073
0.4367470371049569
0.15486439464248358
0.054090530244929436
-0.08502880537112828
0.2967295541976756
0.08635417018880631
-0.04902563738069249
0.045146301990274806
0.09953968248142225
0.0074231528451374484
-0.13562711607245126
0.011389729263768966
-0.24488710461263435
-0.14992899885687355
-0.5067816377749392
-0.6062224464193265
-0.5258270800311331
-0.8566742894691757
-0.5251538831322644
-0.9270079058502805
-0.9038957019619088
-1.0168549678253258
-0.6017176432896796
-0.8013782585713307
-0.9554811759235073
-1.2037659234046898
-0.9719242477776995
-1.2788842920828567
-1.1173619598477031
-1.1383137837058017
-1.4507030774893497
-1.5748596371949233
-1.5835782570058163
-1.2253099191649275
-1.2826014743273648
-1.4020528652549222
-1.137134895638245
-1.2151699033618037
-1.260371328494459
-1.1203546855371822
-1.5132611934645093
-1.2287430527750969
-1.4433864514334753
-1.6346475595613177
-1.5112023291774777
-1.4982065713607438
-1.442791776691839
-1.2555122317138272
-1.3540003680021413
-1.1129015511702942
-1.1894130945312371
-1.2787936307954582
-1.058359044802708
-1.1105412157208392
-0.8776671540173988
-0.8040533760808435
-0.3822219626444156
-0.7825090690072634
-0.6761283399080278
-0.8847247581937894
-0.30936410974617307
-0.7360459517230746
-0.39597745554551234
-0.21622615944855061
-0.13607758921199198
-0.1508750687371962
-0.2721011215972029
0.11703926234255646
-0.04261545258184718
-0.20866001505926995
0.06492075486450499
-0.13738726450134714
0.273248169559679
0.14495096008322111
0.26677851975488653
0.3067813625541476
0.5569083986513783
0.40288596359429946
0.2684870892911761
0.5457546089352849
0.33797605160769467
0.4892522965425337
0.18607493029722205
0.4656110425738267
0.2458932471343841
0.6392686914172643
0.022024476212627375
0.10333953218529268
0.741087274879192
0.4613227974608229
0.45533105552473574
0.3644223403229718
0.5540996307091283
0.4690451433792784
0.7138118763418555
0.20690399954020694
0.2509697351327168
0.4983103860189701
0.34130036366808497
0.19157813466698698
0.14237504825918496
0.3543391001617543
0.11502287431073538
0.04315643307204986
-0.08681838776482875
-0.16843218621946912
-0.25930635316312056
0.11443969682119864
-0.09804947736180922
-0.25712617692041706
-0.6672844568395286
-0.5022644815163879
-0.07978790758009657
-0.4469744069977267
-0.4393156300624414
-0.5428194936246488
-0.7545285138335516
-0.8490201590556983
-1.1365730410870172
-1.0084305029057825
-0.7063698265250031
-0.9847368382215345
-1.0478264567068742
-0.9186970175754373
-0.7281025921066164
-1.296823379644791
-1.517048344263357
-1.4592256086764888
-1.0325408088674597
-1.3950042435684578
-1.1108134681602873
-1.1459192796796764
-1.6030060365174599
-1.0570212934805552
-1.2845846537112748
-0.9269702461577995
-1.045233566354913
-1.1839579941210638
-1.042694600829737
-0.9647466922829059
-1.1824305295958042
-1.230792419690695
-0.8769666769441161
-0.9014576185744636
-0.9169579816823757
-0.9282823910245619
-0.6870103781295335
-0.6441064101524856
-0.8508010953897645
-0.5959085739874164
-0.14908876048996522
-0.384933110466447
-0.16785497520341264
-0.7025015079812982
0.02375680029975337
-0.24340506931730593
-0.09698792049633581
-0.3046869205109556
-0.1836278299846004
0.10781476811312218
0.5769245181583957
0.35542183303300845
0.35615217736145205
0.3463183019443643
0.5434364520273784
0.13106692008801166
0.7941428175409494
0.5128108002818089
0.7125936639697255
0.6456339072704136
0.8722729383011117
1.0391344737251582
1.0115222628782918
1.2124078367849136
0.9492260908690583
0.5939035713366936
0.8240824147114092
1.2470445467768223
1.04080374310429
1.2962266096026196
1.1571550743320629
0.7207471770673475
0.9798677780868323
1.3126609060444698
0.7813538678877529
1.6020747786503735
1.009105235619288
0.68983753179142
0.8990981028236313
0.7007264772019923
1.2610619399801886
1.0100958255017654
0.6847877036821988
1.0006879533427822
0.5328621489867961
1.108701026092359
0.6066705258633401
0.6988838721313898
0.1800695845010808
1.078118833076228
0.6248508931054575
0.61745603752761
0.2068330244483783
-0.20613721129580592
0.3079519018369808
0.22692289676502997
-0.11715290184778346
0.28919274218599733
-0.06331899332312024
-0.2394936085439815
-0.3394859510204945
-0.6145298729126838
-0.12250420583738891
-0.4706070502176493
-0.3064106879899204
-0.5541509178100643
-0.6213246405228787
-0.5358936919377109
-0.7303998316759395
-0.6315486715130258
-0.7876658745052387
-0.9112618109787107
-0.6855447851330547
-0.5326918776841079
-0.6583336785933169
-0.23746136875827362
-0.252967693763966
-0.3976339602240443
-0.9810205678490812
-0.6729466550171748
-0.5786346575987577
-0.20240369048898177
-0.5841191363016789
-0.384553260115531
-0.6869454809167135
-0.39802906291449847
-0.38326601986239767
-0.21947283483907287
-0.39011910494709967
0.09096262631507779
-0.19162083998974122
-0.2391185755141344
-0.20965579955207342
-0.20653847526230373
-0.16428977017641128
0.2963327635863612
0.08233309618912821
0.13466850465521873
0.42117617712580646
0.5435218690733574
-0.26133995125431536
0.5941841642917267
0.5479234911599791
0.6943442494203105
0.5355270407850882
0.9878950678645897
1.1661928426411456
1.0344073453928186
1.0220531792722498
1.0534464036027709
1.1020003244324874
1.2167815334495837
0.9397012685520562
1.216850455877306
1.1622787356489448
1.3746792920225317
1.360881944076324
1.4752696857957706
1.5419962456654723
0.9810016880874564
1.7326792717119956
1.0343279624414399
1.4182855205002385
1.4792010970278622
1.3647609786088697
1.418249662883658
1.4249341525111656
1.4355527232801581
1.733378072197671
1.3525014799963548
1.508079803381024
1.49199940452635
1.4423958608606644
1.4877147610416608
1.4230618540624613
1.2490270497763427
1.3573698530295961
1.0741477276384557
0.8064787389166331
1.0225742170734147
0.7464031432871326
1.201324009401162
0.9032470584393224
0.6961305844077882
0.8482812191276293
0.6565136699215299
0.7709936735756346
0.13725387381437104
0.6839913357220198
0.574980336888251
0.051656189670081065
0.1927583837319256
0.09524304428020797
-0.12243937322597181
-0.02452064174161278
0.11365355874276445
0.40969278474927895
0.02772625432746384
-0.03685306019131718
-0.3989820279149564
-0.6048499537817283
-0.676690818913062
-0.4139978688319525
-0.5176657956735695
-0.3923098312030898
-0.455191676631406
-0.5752660752567632
-0.22822553411362645
-0.6079808206114203
-0.5643517585479652
-0.43587775970166204
-0.37074349195466255
-0.5665767021185982
-0.6057368195236469
-0.21201456743981506
-0.48900906151306484
-0.76273523055242
-0.40821007893412853
-0.4233818734551598
-0.2583154964398423
-0.3389987706515924
-0.14132322409878662
-0.3009455496185019
-0.5584112563955828
0.10702613836932101
-0.5527664133166543
-0.010050615376540672
0.3600061869946352
-0.04117016648960131
0.2364894016849597
0.2665191069995688
0.10179233274468802
0.19210232638429947
0.6518382640116094
0.2451745447275836
0.6472761256484929
0.2461128522277966
0.6844434820560137
0.5317275706229303
0.7047952727900861
0.8446099431491378
0.8224938633794645
1.1256113419195095
1.0814244996936009
1.059719797097174
1.2986283466709307
1.285816503774565
1.5245068363384207
1.2203945342233786
1.2130942940827452
1.029325022685321
1.5086112526830355
1.665908721953473
1.1343535422919295
1.5353395185920267
0.8446306025919565
1.2607424830730714
1.3960438297793516
1.4924318989105094
1.31086368360332
1.1925276810983252
1.08770547140792
1.329737791820817
1.3006869166178328
1.2491096533723078
1.1562731362071008
1.2562525407389324
0.9807240023135438
0.7987084772272988
0.6648011399616452
0.6337383291138857
0.6244738141727358
0.7137670433441682
0.10804425975053344
0.35650786801787937
0.466920362847308
0.12471614534418052
0.09769188288735176
0.36792309319241184
0.24459506816548
-0.02572345711228219
0.22333050833453333
-0.30820122251117443
0.1116921054066195
0.03716800791133118
-0.15319330602143538
-0.06528125555671256
-0.1560732870080903
-0.40629346071267564
-0.09184409070853153
-0.4530653821025976
-0.7587428917058836
-0.32015535122799177
-0.46074230138141725
-0.4426387314119775
-1.0566807108719674
-0.6977090007492427
-1.2757140574965273
-0.8721986778119091
-0.861753718860162
-0.9587951365015712
-0.899504268258845
-0.8999168940279811
-1.1001830579392602
-0.564475977787134
-1.15445974962831
-1.0900502956683493
-0.7862317607930684
-0.7586348767345875
-0.9849906127199072
-1.1708329809254865
-0.6647170702271833
-0.7327619635358387
-0.45744665251195354
-0.8217737169509147
-0.9385466447330972
-0.4446244691628588
-0.872340022323123
-0.5545478365754816
-0.4903080179984196
-0.737266916674006
-0.6155388018844777
-0.03343778995105548
-0.2509972020362716
-0.445074106465951
-0.41536928807120066
-0.20999462739269797
-0.4535864771930044
-0.0898207628412146
-0.19494750621467544
0.09808373641422918
0.43844826151582944
0.18941944826667914
0.32029039485765864
0.20872142466015295
0.3217600761577255
0.034543312815523114
0.36979080275061155
0.2515786307886213
0.3606347742120691
0.7884889305180859
0.5214288767844993
0.7565766266345799
0.7889550000189788
0.7812916666678564
0.8403073897725786
0.6561830728057129
0.34934209460319116
0.9897841590464126
0.696950840224255
0.7426761369188886
0.9550799040859931
0.90514763017485
0.22799358821155302
0.809285998959918
0.5119934275275302
0.6660795587152543
0.2151577432325983
0.5191936569229907
0.3046139274430025
0.7805006109578172
0.29876875889841
0.3816617285639323
0.2997313153918373
0.13877911928844489
0.16906474853247822
-0.18574503262456138
-0.01886128795372405
-0.30618301768107475
0.23044646154607035
-0.3911841582652624
-0.22717645459955002
-0.49556407024587784
-0.34901920525373786
-0.7067045339239375
-0.36540222273431555
-0.7508180234375064
-0.701879732575309
-0.588728738878197
-0.6946650000790686
-0.6288350333686263
-1.1039032713996118
-0.8664539631523974
-0.9843749347371862
-1.0258513601644481
-1.0938806521127136
-0.9503088396346784
-1.2854747657298
-1.2752291861779386
-1.1432181333137736
-1.48251795790185
-1.3278987917806686
-1.622498896014728
-1.4070797850246195
-1.400898399476031
-1.3089349797963186
-1.2647045079384178
-1.518958023749885
-1.7322921134554565
-1.3594742315266148
-0.854206904541589
-1.6453392683378048
-1.630940649582372
-1.416012316988445
-1.6472300726781226
-1.209140136985594
-1.2691989649999074
-0.7577436234176725
-1.217345637013261
-0.9431015708022897
-1.2904834598695787
-0.6790013191274508
-1.0627440348575403
-0.7956482142986236
-1.0849442496544897
-0.7353995748257612
-0.8527581283170446
-1.0525399161984095
-0.35739245414507825
-0.46180064765894685
-0.24184026976789808
-0.42290923616866294
-0.2625695847924093
-0.3147732305123928
-0.20724779128478615
-0.03324051461248306
-0.19365455848253588
0.16343641138132942
0.021423662310812275
0.17762196589445578
0.2919560806046542
-0.004582549266882174
-0.054529790825825764
-0.10858831356329857
0.33532824899719194
0.08620216505700024
0.7046674452526259
0.18567020509805054
0.5517090436458727
0.3468790077181851
0.2951722798809733
0.3884237093167518
0.662220356676277
0.6043445035225046
0.5386666016297117
0.178863067604779
0.5661626779631428
0.27255578869279085
0.22210883548586574
0.472993466640963
0.19463663353999638
0.34337331316762815
0.7405264659032817
0.277422329660859
0.2512977748336254
0.6820960089975376
0.3628621586089301
0.4156671845574251
0.23096584191924696
0.2141808151071295
-0.5368627119970844
-0.21404452017099584
-0.0861047730304384
-0.0929483763658785
-0.27967123484042467
-0.1447164249097329
-0.48982179213793886
-0.4880895223916966
-0.5820815956885361
-0.459924993465348
-1.1531918255756972
-0.8921040012973461
-0.9943979441952879
-0.6064855056413361
-0.5502182678395335
-1.2600282988322367
-1.5212582402102763
-0.9865262915004251
-1.1128734482888019
-0.9459247746140929
-0.981901364449127
-1.4921684534712452
-0.9967920074188064
-0.8675487647675764
-1.3188375248909738
-1.6196524958048832
-0.979725942509551
-1.0920485734934697
-1.59536140704675
-1.5631498235453327
-1.4105364138544871
-1.72990160033277
-1.049421873170578
-1.3221871417378317
-1.2968750692120512
-1.5161139509839252
-1.5024345264038663
-1.1742461779682642
-1.3277390874756654
-1.1213502843506657
-0.9859404758891088
-0.7248945566552292
-1.3453726853873735
-1.3362705224693747
-0.6830342942098917
-0.8471116765066855
-0.76272202903403
-1.0618393857680124
-0.793930142960926
-0.6465427276156783
-0.31365893012066026
-0.4185690417496807
-0.2802977440519013
-0.3238350380603471
-0.10704073109700082
0.07054264125367021
0.12662967128044925
-0.16147177230514773
0.016919945254854518
0.16209381080873178
-0.45799862962201987
0.20126397570578594
-0.007746814646314298
0.5104191587434992
0.3061692316759914
0.6201328819136769
-0.03918701007987441
1.0779407105812309
0.6872484701867403
0.70205800502245
0.7129567290430637
0.8206782810393018
0.7909632244057592
0.7865635298786665
0.8050225754249595
0.7398431036546089
1.0276915672062756
0.7667384910493958
1.0130671263797943
0.7447139807105919
0.5254320499724028
0.8025761689582964
0.8888588897091612
0.7528034720484185
0.931571152144139
0.6685302519829215
0.7396372936358523
0.8628273413846758
0.7675135827924512
0.7426288101994731
0.6556167986507888
0.2687657578627909
0.5623103744241997
0.2532562214920714
0.5402082251278897
0.3627776645089508
0.5862532723794104
0.022031378689917735
0.21321082768556793
0.47899878753132114
0.2118009014192353
-0.24628003152984976
0.06352742472197326
-0.16307288565500955
0.2169284735541046
-0.6316244752590314
-0.3323739301726897
-0.471529914401529
-0.4292386436980996
-0.1178523637521065
-0.5334844435671252
-1.0594367513458538
-0.5100718902511554
-0.7346186916857016
-0.6130705550430918
-1.026897880501344
-0.8737706346793876
-0.9110202929906503
-1.121329022059593
-1.0585466572674613
-0.8909248700556963
-1.1139989886216917
-0.9061928859508115
-0.9997399094701818
-0.4212853677923688
-0.6654527834778848
-1.0393598070430257
-0.6292717272457949
-0.5752620814452405
-0.8445863432256469
-0.7735334081681584
-0.40238833406588337
-0.6847081129471715
-0.7060090548683491
-0.2503044815403373
-0.3368753728154894
-0.6021445004772522
-0.5111913427453386
-0.4476308956082837
-0.23591088099350227
-0.2959061558593459
-0.15576051767392318
-0.15236160679671212
-0.06415263534391463
0.42646467830992474
0.15876199554424525
0.5211818482675915
0.34531413477106987
0.596474646816918
0.2778025789653459
0.8026493806321149
0.762141768209346
0.558346096044245
0.517017289125378
1.1886110919419712
1.1258394487969008
0.7144442470501852
1.1016543166490957
1.1504782274623282
1.2411538442308485
1.277389849357258
1.5308943441622804
1.0217634589195779
1.1450473897623545
1.1270326113834745
1.48522530186153
1.6871532965736378
1.110947923172231
1.1066518169010646
1.582022267051673
0.9998264382092958
1.6441259320978738
1.2038896444257696
1.3671214663953422
1.2834211652229959
1.5828572451678649
1.7899207611665893
1.3705460067189148
1.3192718604654223
1.168475393468384
1.1015602445285406
1.2081970663389527
1.3056230690402
1.0518747941526123
1.099896010971068
1.15560634794171
1.0526685047047752
1.008314436743338
0.9566920836574392
0.746556917532494
0.5035864269867243
0.7246952482924663
0.5752593513106998
0.4177401214557308
-0.018976948174074137
0.32511358993382056
0.37362352189645576
0.13131171908700912
0.1308963435678408
0.17132981870210756
-0.18247107061981266
-0.061293564444105275
-0.180517277020738
-0.06676491819419877
-0.35641787917052836
-0.144429032284227
-0.227256838352749
-0.16634641224500568
-0.06303445008969705
-0.6273575838931544
-0.3269235448025614
-0.6057144197336626
-0.5084657975728262
-0.23036742453486947
-0.8757994271209963
-0.7625414966145969
-0.21712545069634137
-0.1820100178557877
-0.33828426287453434
-0.16261342278738772
-0.5164031746627689
-0.4904193170577139
-0.4166087206269437
-0.6955870048202286
-0.5555743669717457
-0.7574927156204379
-0.1580870195065116
-0.04320079876524313
-0.3586323349203423
-0.282074689196408
0.014076062568385728
0.10941039011976122
-0.14492919477591476
0.040456852276483546
-0.08412576997074223
0.39317502141926974
0.21535692529722905
0.6224823536231372
-0.026115236027976274
0.593338142078164
0.8288353274505774
0.8742417768689135
0.5773240402702615
0.3255848398422309
0.8261753203983995
0.902266520053917
0.8305718978838973
0.6877457051618217
1.0009485970137892
1.0567963476986826
1.1520787278769609
1.6361729551924327
1.281759093890752
1.4790276684220314
1.4052895763526763
1.3826289237864107
1.3493605658344379
1.6847272658598746
1.742194958287591
1.7194046050679268
1.3700523277931365
1.2849639282384744
1.3175844449010157
1.1061381400119783
1.2353915426616022
1.4986847818793163
1.5096495237869958
1.3356332412960048
1.4191812901259806
1.1469629563129469
1.0375085775183852
1.3694794648728583
1.3496292368300609
1.6500819956403505
0.6629737211336066
0.9551073535848176
1.1084532270796326
0.9498957823107297
1.1917653947986597
0.6858011845689446
0.8178821218346797
0.7482631627690898
0.33592169141531725
0.30108048539023224
0.6296631025998415
0.4522600710378392
0.4125364243406843
0.02255720941712025
0.4863156470430075
-0.1758744509778667
0.10819156818292769
0.13116665166149827
0.04235131430642841
-0.14515883345600222
0.022943290865111876
-0.3278205726073847
-0.4823908423799523
-0.03312736264278715
-0.22806927176716535
-0.6197602316817614
-0.355744775820469
-0.5024867781664176
-0.6912897074898986
-0.6336510611369274
-0.7065183058171014
-0.98969244367314
-0.8035721564791749
-0.6793402199471126
-0.9919603892670825
-0.4873983016904865
-0.8406806250322598
-0.96454814857513
-0.7575657392586836
-1.1002483352294403
-0.43475889322729894
-0.9144930695688493
-0.6420865458114637
-0.6206775401693936
-0.8419112522507002
-0.6454866032334088
-0.1516626060492256
-0.6023457087641707
-0.5563679161490593
-0.3818783289815972
-0.21932196711355384
-0.5928554392926113
-0.410398969482769
-0.2715197625252442
-0.14347733683625677
-0.22300566433204852
0.028225125677585214
0.38119259071598977
0.11000375478513141
-0.07402383695011275
-0.11178174050819041
0.17712456028578413
0.35019722875942205
0.04460391436018677
0.42630085675816787
0.6431763619899962
0.3575994348920059
0.6462001025258438
0.9713593849798776
0.6891838828480664
0.8519983271615005
1.0720828638862796
0.9292403591558205
0.8738933480205466
0.9062422047754124
1.3666426740455755
0.9955245156121626
0.5612687005118648
0.8567136658532192
0.910680096554238
1.1248044878667542
1.1086262533909585
0.8867315252777227
1.3526559605515132
0.6701727767534627
1.3612561265267729
1.2001870147281746
0.8364926641118072
0.906842720717207
0.6904256657013937
0.6261500389022854
0.39413605244345784
0.7677347639548694
0.240903011385449
0.5155059774046444
0.559989435634791
0.5486906861752572
0.30253609235842915
0.2612145677712404
0.27333833489580817
0.047977261570668644
-0.14782253006894255
-0.04600508654962979
-0.26201818597292686
-0.17851220255937233
-0.6899505892973647
-0.0768203321095258
-0.342781738815355
-0.27864750478170613
-0.8565373409752464
-0.4355403553779517
-0.9217443199863873
-1.0229186379944792
-0.46235336919745124
-0.4488845156020969
-0.874482246404205
-0.7571243557345352
-1.1710712895074527
-0.808626272820431
-0.9772158521898192
-1.0921529617145342
-1.3005646493878462
-1.3395795064449652
-1.1534004873880637
-1.6087566232802872
-0.9176154564193811
-1.4483605576043168
-1.4163204064054162
-1.3125524931992485
-1.5965338863381726
-1.1829696848351974
-1.2369006290556483
-1.2358706583879582
-1.2798618546340186
-0.8801862651093473
-1.3162217565100993
-1.2947275795684932
-1.3223695236883712
-1.1082303998784502
-1.276770639954659
-1.288851622335255
-1.1045394262911665
-0.8544738196666037
-0.7176388392226741
-0.7390440920971862
-0.8660687868084805
-0.7753354755569926
-0.7181598060525665
-0.7786125798473797
-0.6164686419206399
-0.46966933060551963
-0.5212046299138915
-0.6795658728707727
-0.4711360864139148
-0.23173808536198898
-0.392051318847791
-0.30150245059403513
0.08164831302829523
0.2815544386712703
0.014382284293147807
-0.04963767400734381
0.1814461666343984
0.14341260477071377
0.28813127163743724
0.5998453154778947
0.3796751269754145
0.6438651831580907
0.7186779457016663
0.23303645555097097
0.79658897478619
0.41290670268366625
0.5447445831596152
0.3031367626297863
0.301583484551983
0.3360772297974543
0.3945246064113667
0.43374487670985457
0.44747657855824857
0.29985116419629987
0.5828476456026752
0.49567670579205
0.3772974384529702
0.05045989208342405
0.20115948679795936
0.22494148373425882
0.5264303612930907
0.5566895969720282
0.2138361617847136
-0.051527522639666756
0.13452074169910938
0.07507479116989674
0.05582643515333757
-0.4742473961965682
-0.5040013594678119
-0.29564278868523786
-0.1456662715905752
-0.4196046509119547
-0.4305332379400706
-0.752020541383848
-0.33487649653200324
-1.0858007527724685
-0.979072966081058
-1.100276508116536
-0.8907069074440847
-0.8734123619447159
-0.7889472893872302
-1.1762695845025244
-0.737133772212769
-1.2087166061640204
-1.154415265215031
-1.5349314522864428
-1.4156620251595156
-1.3591388738335919
-1.4710573293355247
-1.0601759338950651
-1.3229598194588852
-1.6534853991088128
-1.304925040349793
-0.8916119897765773
-1.3318304115390271
-1.24851394791976
-1.5125123351182568
-1.3756900985129585
-1.8072226907947353
-1.3814614743512013
-1.4985420877595517
-1.1881348726115886
-1.32786801791003
-1.2255120892025688
-1.1779485007365256
-1.3134287318543278
-1.3260401325984847
-0.9359323513430099
-1.1321464634053517
-1.0142876190922006
-1.1496651736461916
-1.391578384584891
-0.9644398491007466
-1.1683071777142553
-0.7059530221459458
-0.5654944994462695
-0.5395295538716272
-0.30533635140442517
-0.5151418349303776
-0.29193626904687464
-0.399250634946443
-0.2542779823415954
0.4162527323339663
-0.11357649582210089
-0.10707056507181761
0.16071118481300434
0.04453899099656228
-0.25195238564808514
0.22606141495317106
0.18288667039037743
0.827225409066379
0.640939288612563
0.4520916510452008
0.5060411798077294
0.21154360580989445
0.3772923147592834
0.7030184233190109
0.27114660514508887
0.515241791842316
0.7344728765992562
0.9679981461328031
0.5322416543480015
0.5477444557800442
0.7091902906466367
0.8414670615248843
0.6600082862362735
0.48298882064949034
0.6029087224633791
0.6741188562098774
0.7673429214947968
0.5724790813972938
0.19369848613705393
0.08306580232668753
0.2820142994045397
0.27379799637625657
0.1414564550311303
0.674808613944665
0.3888389033022873
0.08103536577496334
0.0862334010257754
0.07369921916076774
0.18043424549848452
-0.004715325562287875
0.21477748640390806
0.022211172114611655
0.144798238195227
-0.17709685014900964
-0.07518412205767513
-0.3365776750483932
-0.5790433386584231
-0.5923314712479061
-0.3211915260119019
-0.5617516479812296
-0.9049879205468891
-0.7070799292588453
-0.6518782835585701
-0.9129611205477968
-0.6096861969723119
-0.9066248280155339
-1.3002920231181982
-0.6145417759820331
-1.190837329740561
-1.140035067107598
-1.173597975523503
-1.0081563436258894
-0.9867450449025045
-1.1893895616743224
-0.9462371273577765
-0.9741317237706875
-0.9948356944722959
-0.9259361150515805
-0.8404433591447776
-0.9583875425164362
-0.9875231793111539
-0.737573948690519
-1.1313396624249057
-0.6231034329380849
-1.1242886991638648
-0.7051131720050623
-0.8284985046883091
-0.6476936831316172
-0.7818102869444274
-0.372901348041379
-0.5338319453212717
-0.25949840625348397
-0.06160085561338109
-0.05203354130907975
-0.046329472680144534
-0.014728385600567731
-0.41181016322450903
-0.10638681381335595
0.22579295125858645
-0.1562416106580515
-0.0821255750706385
0.5882708959914504
0.297336564737615
0.4411060731610514
0.702576506116675
0.604118014430283
0.5534465211562485
0.5558076459348699
0.5405461018831448
0.8748573351208476
0.7648182775255424
0.8188845463614474
1.0674286600045777
1.4108480287741423
1.097854520918199
0.9870948477013717
0.8339763126989794
1.3035185006235113
1.0291436211096245
0.892785185168047
1.2521257346277095
1.1605252625525744
1.209045248065359
1.139729682227233
1.2567066794461255
0.9872001604456239
1.0277367826750483
1.2430233305529272
0.8717958506811143
1.09407304052819
1.3992356490562683
0.8142110666940022
0.9793805992676001
0.7361662525204156
0.8692396444341695
1.0723492534343744
1.310162899649926
0.9414207933926801
0.7119950083205471
0.5888628114629761
0.6989355802127837
0.8313070108172232
0.388357219564181
0.23001086899716128
0.4136366970401152
0.5872454951142712
0.41555202291339116
0.48792550204615204
-0.09614327387787008
-0.026919117657985603
-0.14416170398856099
0.06838898344392785
-0.2684912720776728
-0.5065487349003606
-0.4064199116778325
-0.38521546848297145
-0.12535975985563513
-0.3387399417440728
-0.15006176727337422
-0.4257401517123801
-0.17546967433146854
-0.4983707236209858
-0.3748623799111512
-0.26803661070022
-0.6196042741022731
-0.4058035058868599
-0.68061937998043
-0.31922143408669823
-0.33589788369771106
-0.7005637660035451
-0.5994369071325778
-0.6486579318402108
-0.7749086271368595
-0.4207201296949026
-0.4735824508304343
-0.4487282542172525
-0.10570040346052789
-0.8081891330637563
-0.5073885504168846
-0.033218098488385306
-0.5679329469310099
-0.25508425810609425
-0.23889004922321538
-0.12467124631061477
0.018468998073381815
0.027995919314230122
0.21154115844182014
0.39007099662932193
0.21431119638660284
-0.046044906827296506
0.38792541091345123
0.4642383858482391
0.5041206216668838
0.4932348102854295
0.7261063736748912
0.8692816988966225
0.5735823558748532
0.7828942895019435
0.9038255381371945
0.9833519220095308
1.2781540508470732
1.2911657416474949
0.9036295770714937
1.2798002065087715
1.1900213230746282
1.0252379715258133
1.1891797217377564
1.4441549105907554
1.439448759839245
1.4698888428488792
1.654748868252066
1.46428781825591
1.5422029878371386
1.736490747166187
1.7343305177727801
1.2889108750830758
1.5179924799220843
1.5445687776849928
1.7712945048471627
1.1804206722374948
1.6833028070033738
1.5306122286132418
1.1591304162821308
1.1232109983339145
1.2275655156586225
1.3868724927656095
1.737099561795071
1.102853516515361
0.922685521855731
1.0448506573412106
0.9884297426694741
0.6975023365819791
0.7965642958025865
0.6868285443535662
0.7204326603441396
0.7651726555987384
0.6301931834091649
0.7405067685466993
-0.02444777623660721
0.127403983529989
0.08973551830847137
-0.2941443925894013
-0.05855816291486676
-0.16495250988232224
0.1821308613714862
-0.20972741161639397
-0.22546063823375706
-0.4070370563081387
-0.2987743516597318
-0.2331779272629449
-0.4873499842019637
-0.3473693466848027
-0.5956569323829104
-0.489025184606319
-0.4435574513373456
-0.5785888194386979
-0.551563585545902
-0.1982254934148477
-0.11279411352214913
-0.6912966999855883
-0.7401270951908177
-0.6303239424785114
-0.8834979578315321
-0.7249087058078688
-0.8879836299514062
-0.24600971181682108
-0.7190826929947585
-0.43803423181403817
-0.8160175960512397
-0.3680068827683355
-0.7093035949949102
-0.46749202257984085
-0.33889669303424397
-0.2302225690984776
-0.49213060816806464
-0.10971706887191629
-0.11652474615918934
-0.2673619873539736
-0.15519107999063558
-0.15522551601718154
0.2343924953499021
0.14230391643802195
0.3203111924766683
0.3965150835134439
0.3504351246122347
0.23598710142735735
0.36340795659147296
0.5624943274956395
0.6984632861568087
0.605276641947184
0.7837282298980656
0.4750809317735668
0.6314545624470194
1.0846212542789133
1.0588228354567242
0.8031786665069368
1.1726215987659732
1.2715349118762185
0.9431843026904316
0.9268211518804553
0.9991740928709572
1.4774717343360673
0.9564789045728943
1.231944422612133
1.020840676415171
1.3432102647492
1.2875573961925701
0.8249598351000929
1.5575686628388818
1.5187941330473518
1.0213863516925359
1.3306820105265453
0.7600622013297479
1.3780106577169278
0.8546994866063787
1.1379740533143832
1.0221008749005196
1.3954777166316885
0.5835145208311097
0.666838115891892
0.8469684794694265
0.7415158990268557
0.5311905005403508
0.8953402958989805
0.25739872329371044
0.07439775102845975
0.017668884870833963
0.3686333424929012
0.33194531710826447
0.2407343537818181
0.13281441390439566
0.027031475143253495
-0.29335728458399823
-0.06134568037011418
-0.39325472880153967
-0.25979641312064816
-0.1329825433459816
-0.29970616118816207
-0.5207981291841389
-0.07404108894351798
-0.7113673565986572
-0.48657701833656447
-0.8231867440105046
-0.5653847712235143
-0.9327693617981659
-0.9385515111103558
-1.2692466283820103
-1.3045523630678413
-1.1194275026122282
-1.1872058852313672
-1.2622494096024899
-1.346480112681461
-1.1183897639880833
-0.8751244753632778
-1.2042178420273457
-1.1980185571702053
-1.304416599253479
-0.7561996602597916
-0.874732118276223
-1.3671722825323305
-1.2095125481498648
-1.110562131129968
-1.1803261139641719
-0.4767032711447152
-0.4728739059674593
-0.7227747370127311
-0.4705483959640805
-0.720944329165988
-0.7580068485697402
-0.4877402754633341
-0.6642820617641427
-0.49179453035525705
-0.2070264217634717
-0.24219386572633805
-0.5037897122304659
0.018398997845258502
-0.04585965044400042
-0.16488512682041712
-0.0349357119651707
-0.04712300231286437
-0.44030866932354823
0.1527379213650561
0.41122965116091204
0.0019172991080739221
0.1911742125994551
0.3528689591300202
0.2867618954610417
0.4304719223972454
0.38287204758571197
0.7824846931892607
0.4379425621280543
0.7948502449158186
1.0669976005771553
0.9366531271972057
0.5021120796670691
0.8444083301864764
0.846880384160771
0.3775272571767748
0.6682621518575533
0.8418793776815614
0.1305187169519786
0.5773466434340186
0.6354131271286871
0.628611402044061
0.4487086768947609
0.21773101072379597
0.3624866438950407
0.7034602874038691
0.3136146024489952
-0.022647901191962028
0.5126921024366728
0.4861872031379016
0.36852818310187385
0.22119921836496848
0.23911831406341
0.1064284584433734
0.10014906410026114
-0.3888386161420344
0.18214297141085795
-0.14007442750999294
-0.6395206673409619
-0.20998159459809507
-0.6387640914632928
-0.4135780534117115
-0.6474557593495094
-0.6623050151541612
-0.6738566006874075
-0.6737950882002073
-0.6842567142143978
-0.7988142390156172
-0.9789124300114627
-0.8742839027723126
-0.8370405955846654
-0.9898692565686917
-1.3286916570845184
-1.1938550522327946
-1.0044349144244782
-1.0160665140285081
-1.1736872430570378
-1.5918841683086302
-1.1554391286530268
-1.6746372938982483
-1.3474504169984183
-1.5708968750708363
-1.1450260194939827
-1.732839759586806
-1.3696580053037597
-1.5727619667868713
-1.229219559559855
-1.5312681930080574
-1.849911533770665
-1.7271722024391138
-1.451363248197989
-1.0529555695313622
-1.6778454690936706
-1.3719571272487279
-0.9045210914308864
-1.4542890283807672
-1.0225433243412436
-1.2911171369118493
-1.3089995896066895
-1.4800458220415524
-1.0634812869850574
-0.8752051260602416
-0.7748747175775944
-0.7765408762593248
-0.8372899725047771
-0.5618628757972063
-0.5147578940991228
-0.3186623908559122
-0.09641772575490237
-0.3499240894109523
-0.11411669181903089
-0.038027625172634416
-0.18704018247711973
-0.39695834917140227
0.1465099341594297
0.1619446969409964
-0.2541782637776671
0.11758023862238343
0.281458248813939
0.33924984441307127
0.14736133643152838
0.2281839915505361
0.8527805376143942
0.27479208969010493
0.3493771104174574
0.7548529659505974
0.671510629777885
0.7492681414361997
1.065387320956607
0.6534452281910439
0.5084719465632488
0.5867784317044359
0.9245135235403823
0.7571815868722446
0.47524927008594764
0.701807696423577
0.6346668077886425
0.6293848294003462
0.5636929444480552
0.45743999330289814
0.42926367063998366
0.4167667569387966
0.6354408618107292
-0.017037104046373597
0.08441416752576014
-0.20882012175751158
0.13561199642063887
0.06482759251454095
-0.13268587246156255
0.12914008206619504
-0.19433152972608436
-0.18531420455647044
-0.006891169542340203
-0.7754726453335148
-0.2847339224879606
-0.7112091171378645
-0.6049454922619537
-0.7747457633849584
-0.40847609269285173
-0.48659429905880197
-0.6887057387557374
-0.7091311333144583
-0.7306246185677406
-0.7181543328530722
-0.867160038678294
-0.9814414327225408
-1.294619138678212
-1.1561614134116587
-1.34065446945869
-1.6061842818723033
-1.3929898940355216
-1.595828941800458
-1.6053940424552653
-1.4234708573374013
-1.3042257653175726
-1.51368393681592
-1.4188240952512046
-1.3813479047001267
-1.2020015344527848
-1.316739448322496
-1.2121743879693347
-0.9164780432321216
-1.032614378110504
-0.905616191908577
-1.255369186243052
-1.1328134356918467
-1.215566710459433
-1.1541514212725539
-0.7785934580372634
-0.7113752335008261
-0.6549478468150178
-0.8962375806208163
-0.7774958110091099
-0.4876388316718755
-0.8971221795031785
-0.42405518745404136
-0.44444470789272894
-0.44965828942615016
-0.20758934650382818
-0.06779794717036379
0.04252047118687921
0.10496274802964539
-0.20806083185905627
-0.16399311128013072
0.18967607089101024
0.19882646323735523
0.5623576408180198
0.8243225202300911
0.7461144623811456
0.6025410035173039
0.7689425730640159
0.4449721242726194
0.602100748913919
0.8527435766293575
0.6057266468527187
0.9477565312623192
0.934040928397989
0.7981340726211216
0.9455760217845309
0.7975375426350666
0.5417334430589216
0.967935890523135
1.072195880698504
0.9254461938808588
1.0508388875667705
0.9621349248169945
1.2851458335747297
1.2119586091577437
1.0633751712521917
0.813697691761997
1.2236572261068626
0.7551558439061729
1.0768480675019407
0.9311838366253579
0.8713680263158946
0.5070618084956223
0.7247674807486545
0.6469341640252625
0.7820787139117796
0.513863961174686
0.3910823909751059
0.7711318733850309
0.4333977643271541
0.5781767571395877
0.20602175693572886
0.04156852100112879
-0.055836329892049924
0.18641868466526856
0.14700926592862174
0.027466366330852865
-0.07199370528070129
-0.31257160950189933
-0.4611203013957741
-0.5458565346136988
-0.6703135945196619
-0.7578486130850508
-0.4893598029964126
-0.4008099058019381
-0.3063674486748468
-0.49980051034674644
-0.6165553133123987
-0.6618899668444105
-0.6922402755517143
-0.384936057825377
-0.7042558664239011
-0.8842664834597213
-0.5403850398359744
-0.4788038666782496
-0.9145068423968143
-0.8722175207309277
-0.5764786126118189
-0.6714044024993295
-0.6338143578289359
-0.48327856795801594
-0.7460866126702042
-0.8519819574817328
-0.5024248590341258
-0.35139590311482805
-0.32126772634694567
-0.5407471235283102
-0.023092574120954112
-0.4849571650118415
-0.15791952811399018
-0.23436492387200508
-0.3382648983819592
0.0712770070340964
-0.12595243542763435
0.042622400011112505
0.35884199725031585
0.1760360803909283
-0.002270917743095957
0.35594115044031405
0.3512383040853925
0.5191930436715543
0.5772164329390024
0.7317245469745774
0.6973049671764868
0.5641772367132054
0.9538886999812549
1.116295549936936
0.5967586488254129
1.2454700642700103
1.1829099787840693
1.2956814230359397
1.0079130943742185
0.9016171488490672
1.5749429392665089
1.3828524351242966
1.0494034228317854
1.4657108786433435
1.1157040003570535
1.3406493652149831
1.6645903645988516
1.1729508186193218
1.316632014454699
1.3682993744289247
1.174123022996613
1.6814306478439418
1.7091499003488484
1.2658146491821334
1.4232076233018793
1.3619917955351941
1.0720316402944918
1.4761912121021616
1.3068399529535708
0.8687928638548286
1.3135505914443968
1.4346230956484989
1.0333947411431015
0.9659406324693567
0.8253126197850191
1.0452258761882556
0.9763346451843785
1.142357734602283
0.7816344784391868
1.0695478522670046
0.4443217962623733
0.8535773895173325
0.528953897149875
0.40395593063324825
0.32429125574456286
0.29962033865301185
0.3867020109109627
0.3464422453819476
0.009936928951167212
-0.11482277992686324
-0.0935278499394781
0.07086031283448901
-0.32431108828464633
-0.25385832950011983
-0.05635029925296858
-0.13508914515954434
-0.4532640887614154
-0.6351471521210346
-0.6427606819372622
-0.12274974036297165
-0.6883657623294015
-0.14123370056092244
-0.5258565548862051
-0.2433129207214083
-0.3886183813269902
-0.6357922178782988
-0.28718561131264214
-0.6542449076073724
-0.5827352176737173
0.011452155828463206
-0.44545838211260386
-0.4431799890972424
-0.7614024285230576
-0.39073130682709206
-0.2519551870958224
-0.3453603213189883
-0.26953259168522214
-0.01885418779630582
-0.11188890165284593
0.08833063636392013
-0.10009007366111816
-0.09827770600221392
0.06632533348670805
0.47804694107158513
-0.15314998306457017
0.3472919397681294
0.469359025617315
-0.011432148519870233
0.31633252869304884
0.7899157553740042
0.36683921283349974
0.631090390244202
0.9497467543669458
0.6602336806646734
0.742810309867961
0.741136700694226
0.7978744175528949
0.9616352138331468
1.0722294726952586
0.6763711200809884
0.9424354645819383
1.0011362668862436
0.9859914640701489
1.4350656988517971
1.3849592698929827
1.2687257808085348
1.4087994227279241
1.4131265626967326
1.4664737627822255
0.93243316771191
1.4626660409781067
1.4228404536072803
1.2135419573808748
1.4721294430091527
1.1114533168928287
1.056605560297007
1.312454202324349
1.1661418117008195
1.1337391393671685
1.4017454982464854
0.8233492977253549
1.3406344504944199
1.2118528120484473
1.2767234872501274
0.8287164779888627
0.670543017774209
0.7583508233569731
0.9758176073382361
0.8139097651961165
0.8798481452460969
0.6024894900529643
0.7179653196345644
0.6844737503938868
0.4123643550366842
0.10845611488212237
-0.16558344743095893
0.03335890207504352
0.13934714456446518
-0.01986038394649242
0.20504382148927283
-0.0038980523013163737
-0.20130661858086515
-0.441743702939673
-0.01596005932763639
-0.10703376337113707
-0.5526025057702157
0.0046426642791076445
-0.825122443695892
-0.8798669196707194
-0.9799637720864552
-1.0340538111960618
-0.3858176304396592
-0.5657695174749222
-1.0398292497697623
-1.0906072957314121
-0.8784701073401268
-1.1957632598047343
-0.6940733113829539
-0.6295831806937714
-1.161240155408438
-0.8010204866455755
-0.8654288017744134
-0.9113272482715378
-1.3075539228290243
-1.0376072651222188
-1.1660399262680703
-0.9317983986228403
-0.7119727290108199
-0.6405558715736794
-0.5985616930973127
-1.0561080916976353
-0.5282086578088294
-0.35306940272678555
-0.3882524043806935
-0.2614789134502884
-0.373970283076424
-0.09409069530681635
-0.057273407997032136
0.012241061997048509
-0.33581746009381636
0.06060187619897592
-0.0999760813646006
-0.2603760182198532
-0.08919259834871625
0.4046035497416576
-0.2159660879908484
0.5181262760050356
0.35471505857677005
0.3624820751578976
0.3761704798436558
0.8287551224587935
0.4369661653430815
0.31378281232322747
0.3121792171568994
0.42365606201240197
0.42774299123399406
0.7611208855298599
1.0726364184376598
0.6559829027852472
0.9852151052147371
0.8891877824097373
0.6212049542024483
0.901534969974948
0.5267507328581033
0.9509264772803603
0.7744902027248354
0.5567021828974206
0.747554355573008
0.676644951827011
0.5476810075274712
1.1369379181463657
0.5024471498966342
0.5563902236731262
0.7246732207094003
0.7392422224038149
0.15096267629192622
0.3646409506889786
0.5680804206903703
0.1537300472430826
0.07152474670596548
0.08526559809053474
0.19235644142717667
-0.29917211521384746
-0.0469454046978828
-0.1297039053704294
-0.3583194929329716
-0.5043599452510026
-0.20576200120985114
-0.692813233338398
-0.46281865091421936
-0.3591278646061945
-0.7106346327679832
-0.8971162253233589
-0.8814485298162777
-0.894048483908315
-1.1068260493752393
-1.001006305340903
-1.4087533963333674
-1.0886750403202177
-1.2437002911395318
-1.1170811807017391
-1.1789498195995882
-1.292586174092652
-1.2058111652447479
-1.2873533390974727
-1.3323415986261216
-1.6640436543482304
-1.3773425053262187
-1.3201041685534165
-1.4228654319086895
-1.2975397595675673
-1.8455961815118727
-0.717948027560681
-1.446877440444525
-1.2545279873869695
-1.1428351195247783
-0.9432427403934772
-1.5509982517165928
-0.848680421441244
-1.4333701626507769
-1.15224673211921
-1.2385772995307847
-1.0118977402407734
-1.0136533229059332
-0.7641718316958697
-1.0227994913004492
-1.0801969952695183
-1.1328197930163282
-0.7840592869581162
-0.6633253522071265
-0.5482109556815037
-0.35349912556745045
-0.32934246634313186
-0.17634566996242818
-0.33684809124771253
0.2389177933142726
-0.32876590302883935
-0.1829067413080011
-0.12907810218886717
-0.21386507032797625
0.3018761477674065
0.3086499859074786
0.10551776158398801
0.6076158977665262
0.10491341028456624
0.24610672037917758
0.20617854866958435
0.3033320612644271
0.6752171316124931
0.3984537693325799
0.17310293828454248
0.2934665515234853
0.7220649823553975
0.49387796396019973
0.3401894301552691
0.6354679899851681
0.769206672913107
0.5007445344833577
0.7270535710208813
0.5996895762910871
0.6426650207959899
0.36397804877014617
0.2820900618393094
0.34442830266846414
0.7093099858616533
0.07994433477627044
0.42316617809617313
0.1922397251321447
0.030594800454572635
0.48448146883294985
-0.30365098343470837
-0.11122843097594692
-0.2524409348203726
-0.151027434861495
-0.14770924095203308
-0.14128074864320217
-0.4398480206837224
-0.3309795835035334
-0.3871700548661527
-0.9219390266552165
-0.9876996780335434
-0.6593176584430068
-0.5934331913501837
-0.6432002434460855
-0.8264474416843777
-1.0241392507436298
-1.3114346915517463
-0.7710050373174286
-1.3833435968540322
-0.568771576321179
-1.2051106244770637
-1.4074360351259851
-1.2258765388274697
-1.3200145853397949
-1.032470490018179
-1.5191999380910226
-1.2567796319633142
-1.7073591359402989
-1.790531720097515
-1.183010755666807
-1.4598063634010023
-1.056328401495748
-1.4058438784563099
-1.2596025433617153
-1.4747843567008072
-1.6506924210949587
-1.5963070053302548
-1.4271331513338206
-1.0021210380884145
-1.1107963034741866
-1.4311143756102562
-1.3442552347189545
-0.8742521440034166
-1.2817919059314782
-0.9088390026945468
-1.2089962707393693
-1.023694366112238
-1.0856462378935916
-0.7272356803715903
-1.1869483991747294
-0.4994891268322158
-0.400885771947167
-0.5254904775554328
-0.739293022606718
-0.26754282374179306
-0.45881668200286563
-0.3312475019768166
-0.007925898503435669
-0.11049092219705836
-0.33191905635694713
0.06988000286561497
0.1598761652243305
0.38309015925237844
0.29620618411298044
0.26262859538948485
0.03449426978315073
0.5200131235924078
0.5908675369089273
0.10535168798544753
0.13143332387983797
0.41498894490014
0.741116769150684
0.7214784021701152
0.8639792973211075
1.0221035366420852
0.7163581204577191
0.5448341802339324
0.5641325057032869
1.2511876764508398
0.7536058904933848
1.188474248895885
0.6081222531417486
0.9536173697385314
0.7463866247945905
0.7576905091389147
0.7231774404520029
0.5868385790924369
0.7714985041856345
0.7539679837322157
0.5401178679719819
0.42693967220099427
0.19992648206609237
0.5126958724079205
0.5098945820068875
0.2581899886796529
0.22577418600174073
0.5054065822887576
-0.002269009621774107
-0.06501429627772376
0.17171365396954585
0.16953723540830384
-0.06300724145352293
-0.057162798359369785
-0.44253190131763154
-0.23040165507141042
-0.27819516869476446
-0.4419198826953319
-0.42543734239031605
-0.3974371992969599
-0.37795790177676397
-0.39037842707048725
-0.45304884636410053
-0.6788196216550115
-0.6856948999294322
-1.0791901813885667
-0.7781936525546728
-0.7625461559851473
-0.8854945790851906
-1.0652071325925199
-1.133276578930478
-0.6644150796850736
-0.840721303546995
-0.5615409102236636
-0.6397546491974815
-0.591658873233204
-1.0876578323540071
-0.7863454703286503
-0.9695852873619587
-1.2966440085302486
-0.541295387070354
-0.8441205568626508
-0.4765320619055141
-0.7783763542791748
-0.5940044709281683
-0.8566839549696488
-0.4172438577564269
-0.6530276858257952
-0.6129595224837971
-0.10353128515099685
-0.29274850852349343
-0.30838768809704264
-0.10427267680688279
-0.3944409287975934
-0.21687788398071628
-0.053578439470330225
0.05483452759506614
0.3896140738115887
0.050420862413751155
0.29014553070028704
0.1440526602530859
0.6351765965946949
0.3958066260737356
0.3467542183660418
0.3865481302007602
0.8033605443471816
0.9087291580296455
1.1205713015252003
0.5841078848314405
0.6712250765012582
0.8838207414320127
1.1881400732169944
1.3580451956104382
1.4927301416270318
0.8886969189684814
1.1227866803905533
1.2248502331068147
1.3894710912318682
1.3039189143497851
1.4117381388502328
1.5046869904633462
1.4844463471372582
1.432806483827347
1.3534356782499708
1.5217772629623108
1.0651118534837536
1.335410187408073
1.1424641052215772
0.8222152842256278
1.3086179686856432
1.2251986067801404
1.0741708335457
0.8293278829004329
1.1180505271796888
1.3813387833679591
1.0056035073130576
0.7888401955255279
0.7232291497907665
0.7749735387867638
0.9315979395182542
0.6285250534647053
0.45415702011671344
0.35252932079291505
0.6380203366179198
0.13288498948696692
0.2645547687472012
0.4678062172953319
0.29587267423004215
0.48531590444100053
0.4289241186630193
0.12458786170083114
0.0965400257054273
-0.16269885311147148
-0.3374847500360297
-0.14043816254393293
-0.43860161870309605
-0.44837327171742625
-0.674517604893611
-0.8005155544419227
-0.08946682190536048
-0.509640711436478
-0.215387572848027
-0.25576536553959167
-0.2037309134048383
-0.44230141571006826
-0.49659994911392186
-0.4020496565834231
-0.4952484635416145
-0.4701590932424766
-0.10315723747976013
-0.37295841592940165
-0.3532906681781442
-0.7461907999530158
-0.7043111343538415
-0.6398579499226416
-0.4637607542243654
-0.3041661838943075
-0.4174159139433859
-0.13946221375977919
-0.2984095296599467
-0.37460791049283465
-0.09336457966151829
-0.346497384640256
-0.23355017677667556
-0.03556572267347796
0.18793791214653316
0.028328057524317607
0.07554185570485111
0.33822564516747694
0.12589158185393728
0.4514698459555081
0.8187196623752098
0.6289142696938947
0.34957431377352477
0.6448322090160397
0.6400763141840993
1.0881555046325557
1.1763393250868053
1.147576538736465
1.1039490435274582
1.0614748900684703
1.0589644825737716
1.1433624242761513
1.0462745509783224
1.184353385706518
1.1414442598297192
1.1641648350652245
1.4517452371659751
1.0479658995921213
1.5280785357606284
1.6700502803853343
1.4139553767118729
1.6048531482489565
1.4910657553213396
1.8937291342714857
1.2035073146377115
1.707105392765167
1.3740778599224899
1.5406403593990423
1.1897862121484577
1.3016240679880933
0.8440182938211589
1.438190332013169
0.9555423684977353
1.3724627203644664
1.3192479101290104
1.147007766424838
1.2336570662355975
1.1051490207558339
0.890111887405862
0.9166736385675227
0.8521940290019474
0.8548093471659308
1.1195027555807229
1.0553964388773807
0.8045395117064348
0.04287054398238482
0.28710378801369363
0.21237100467008013
0.22557224399002954
-0.11688929830712053
0.2779458425878621
-0.0140682703160942
0.024091862479721282
-0.08444716167659994
-0.06179209048996104
0.012656094007647278
-0.2993095420337447
-0.2336322413192085
-0.6304846059796302
-0.2618780804375476
-0.797502854501847
-0.6688700585428975
-0.28272481803612526
-0.4445717673441561
-0.8476732325760936
-0.44788526469306816
-0.5338687917959565
-0.23385892092128713
-0.44617362349246154
-0.7655960025903827
-0.8334617689527125
-0.9168668371847117
-0.34963554950190256
-0.7304922759272665
-0.7269640266784488
-0.4104163776734287
-0.385673083841945
-0.5703279861369726
-0.33598002307899494
-0.42852122485017413
-0.5054139600057043
-0.4730022932692195
-0.6317956908470326
-0.3400677595942058
-0.2509717845447982
0.029674599533014656
-0.19653956316633192
0.19450163904441897
0.24719922384477683
0.2520963844288045
0.18610924555345626
0.1333742001572034
0.07400826746566153
0.40764914943372266
0.5044797836567074
0.7971386032816457
0.4071718336250659
0.46662983451145734
0.5682097574674059
0.8283241843595951
0.6921662207646446
1.0679693937911054
0.9137524292944728
0.8162802934310617
0.7865019827736588
1.0686765739269357
0.9062034718702234
0.6865121795076137
1.3133746546224034
1.0990496735041086
1.1161999214265363
1.079201545978474
0.8666339810183722
0.8981085376052436
1.0727624242905152
0.9267859630042702
1.2044870994026902
1.512580790784126
1.4818726352522948
1.202933978313471
0.6854416302932882
0.5976815692612067
0.6608888114802242
0.7606076719071079
0.884054302118489
0.4978045787900533
0.6125947996908915
0.5495398214287179
0.6509194765519685
0.43977700193458225
0.8284746195042951
0.2865771897046569
0.04087824234727767
0.3099939932007271
0.17301216531013533
0.2235036713219869
0.017690470784692727
-0.12415536727283552
0.006586036995682637
-0.09706607716823033
-0.27647958434597025
-0.3862800169951267
-0.7908127794729574
-0.2724706300196723
-0.7599453060760338
-0.4272764406123488
-0.9211607085261676
-0.9915451741881816
-0.14867912978525608
-1.0033611525915067
-1.2200498842527803
-0.8749108180166405
-1.277174413160451
-0.7398881256999835
-1.0806920571089278
-1.2965325640547765
-1.1241044050297195
-1.3862642433924397
-0.8398994036501262
-0.9063304135309318
-1.230877142161845
-1.1205475960581746
-0.750409913776437
-1.4629592077162243
-1.1000917767688705
-1.6524938697459248
-1.164401934148275
-0.9192737682128751
-1.5445054034355143
-1.2012147559992647
-1.264882520649541
-0.9458924658065906
-0.9419830399857224
-0.781748683037416
-0.5303173503080754
-1.0759980316188635
-0.9239558410630508
-0.9796322934963135
-1.103717295486144
-0.8237200745046241
-0.9064232943074059
-0.6603755688038768
-0.6154125440819812
-0.08085357909143753
-0.20887265754218118
0.002790984681604769
0.08985492101647197
-0.3311275357743445
-0.00024458774429458874
0.1368339066362947
0.16080391171255787
-0.2474434724735171
-0.25110055257158187
0.03843107702545934
-0.160029276462906
0.40676475184296285
0.21116361619922985
0.3464810716476271
0.2000009944751429
0.3595386625525618
0.4240063871714809
0.2529654007563492
0.39388408201462827
0.34632332233241575
0.1576677837092998
0.5942682220220387
0.634448910456143
0.27280232537066057
0.4506260044790177
0.3216240115184282
0.3771332489183449
0.64481909452969
0.35081898366670466
0.02555460213747457
0.561728162738097
0.15569943596949837
0.4879214662489474
0.3370575708739995
0.3130005331696633
0.2665690427069357
0.2119038557141416
0.5189474080953422
-0.02029348299235545
-0.09086313679853741
0.049625371249378825
-0.07082857963929623
-0.08968004973604438
-0.35188482371120017
-0.5792425960991074
-0.26563318949277925
-0.3240319179954562
-0.4073848089945618
-0.7220437838369553
-0.7390111435387425
-0.5556338482979407
-0.9247981470709457
-1.33531368239169
-1.354366537021945
-1.1908516644605385
-0.9342181423472624
-0.7660390936435966
-1.357420959530997
-1.6098641604074286
-1.2070289806420302
-1.029354652616185
-1.390402202111352
-1.8801682857079025
-1.184718942826843
-1.429656818112036
-1.5008224817417106
-1.4806061055492603
-1.2020218709484038
-1.5115838637670298
-1.3509629489230814
-1.3070410888379587
-1.4386314102942679
-1.1686054708471816
-1.4283275143884668
-1.5755205786194877
-1.3175882897822242
-1.1795038481291895
-1.7478940912097476
-1.550965479120073
-1.172083828544213
-1.3256016740212369
-1.3349923823470224
-1.2087283387925605
-0.849718312386384
-0.766320637574913
-1.1434518095705375
-0.8599928465675384
-0.7165154196558482
-0.9402095765560583
-0.5990509606087596
-0.9151434785675276
-0.25466513139790886
-0.2632891271480636
-0.42475011339115354
-0.17552130538251454
-0.4641254123607405
-0.004937155059920095
-0.27266969099244576
-0.2576319785238529
-0.11171649927205157
-0.1421553411847874
0.2640359974526635
-0.01852090987008087
0.4679859324728506
0.24865250057490967
0.15556067114989275
-0.09724205190518287
0.21271977159624655
0.4958931139935189
0.47917287353543564
0.45442885957453577
0.4159516731720151
0.7321194640111245
0.9464371209902593
0.7829126510531703
0.629255776482435
0.8378705811414504
0.42290670719318
0.3421340866703973
0.6593473112514483
0.6091095620671534
0.46069630425592456
0.5489769960542815
0.3720287865540748
0.6301760570364313
0.4761416521557986
0.1723072216666261
0.3678880395655545
0.06946258489254464
0.47860704616881183
0.40767472000847393
0.07074235032510068
0.010207375496112892
0.14739176670515075
-0.030502152216395073
-0.21606295782900636
-0.32581662217483853
0.11034700138537401
0.18450776274184982
-0.6231051948510689
-0.454462783523903
-0.7198867689264612
-0.4809894187117766
-0.44957156719069713
-1.0662868427646863
-0.6430701297156669
-0.8433985489544829
-0.7151144829759573
-0.9316871812763411
-0.7985670412696033
-1.2683775668767205
-0.9497888309203968
-1.075507552238966
-1.169646880448749
-1.0082445889572174
-1.4747626894610224
-1.4754733426502789
-1.24556064131896
-0.7563300138828181
-1.0915586827105281
-1.5184821720048118
-1.4763097536162766
-0.9716706556428456
-1.301052689031522
-0.8404074981763909
-1.127895502549416
-1.157975568231915
-1.244488227113789
-1.0273541612816353
-1.4442268355437504
-1.3556940109905162
-1.211473475897294
-0.4338369384521389
-0.727454918140257
-0.992920071539596
-0.6307255796261837
-0.5456327356575605
-0.6370903062662935
-0.3786329840537636
-0.06895339457342436
-0.7145671421963402
-0.30963736304442374
-0.19398082292906202
0.11182411880619048
-0.17273584952969048
-0.09688832940189969
0.27678262173862567
0.18005985094650523
0.19478614743177175
0.2986667886585149
0.28297308676590915
0.3755826131532076
0.32493637579873613
0.6955442344744583
0.6974179532967391
0.5952969351305228
0.7992198227719279
0.783230252653673
0.8904546815296294
1.1243503218658042
0.8950781789178199
1.1703761813415807
1.2447526405394453
1.3277952921168918
0.7383110161150177
1.1304959711498013
1.4650970755660293
0.8785684026422712
1.0394788300141622
1.3495460439208002
1.0968006527094625
1.0208596558265692
1.232743444214567
0.9543580469415972
0.9932666887493194
0.9177906615781952
0.7355002747676991
0.6964630800456213
0.7658385676860721
0.8562925707811069
0.9088792899946041
0.5975311662401656
0.6895376232440248
0.7933401382687476
0.1084849862330518
0.3831978148510796
0.6377265016875636
0.776605422161407
0.1443560206820925
-0.09524442351710771
0.28367609937473615
0.033040032930041596
-0.11148033886792541
-0.22597927686587435
0.015434028643541264
0.14280455491390506
-0.3241187283929286
0.23539754675849994
-0.5284894488211296
-0.37166136834468516
-0.2702956029515763
-0.1417815469629896
-0.11072596729712425
-0.5056098422648071
-0.22308688688544548
-0.6731586532742518
-0.45169397370299047
-0.35867459045940586
-0.6876448041801562
-0.6498394662721851
-0.4702207916830207
-0.41650177851738146
-0.602082984615519
-0.25791977076352557
-0.3669146934857547
-0.806166769190036
-0.6050331164948823
-0.7227271648719793
-0.19414401908336232
-0.5881770068307589
-0.26563204912277116
-0.19676421496189128
-0.39072495686924885
-0.7888183008466352
-0.1744316018026862
-0.12145239588135887
-0.3372635315407111
0.06622776885985487
0.09782170079070202
-0.4239438538392165
-0.2279138569124603
-0.19641682949204825
-0.21970450619581006
0.33320378998966216
0.5251059727837355
0.0893527893697928
0.6616345798460759
0.2929709966505272
0.43447585523809235
0.7128446262389808
0.5609673752953082
0.9572383686123984
0.4973702557133698
0.6830159944997732
0.9404158132536581
0.6708573087917102
1.119960837895822
0.9787765374171931
1.2827673962177577
0.9799591533081945
1.3830982851920206
1.266384084344331
1.3051583507033233
1.0132846946975669
1.252695265131604
1.2725570077790158
1.6155273431116994
1.3453524744491658
1.5082710861661186
1.3246730877985262
1.5230182302415045
1.6470300507777664
1.1077955742135348
1.2762130266799587
1.5543925420877804
1.4308676600788703
1.4087826532426968
1.5601194077943439
1.759890187210455
1.4955771369360167
1.2429214622994862
1.4477396437394154
1.174343795972772
0.9147246621022214
1.2410346356047863
0.5497241025389975
0.9472561367856392
0.5298982523880839
1.1002097537882183
0.4950804698167333
0.6225884270608101
0.6518272010744796
0.3233111770060382
0.4210428617865944
0.6002836519537382
0.23470174676186606
0.5200191658408265
0.2940135838612845
-0.13905916907328075
0.08038107257665827
0.10907355705331617
0.1652776184525125
-0.2712017264233304
-0.12470678631954579
-0.0009045422492480748
-0.6128782478408241
-0.08306805683200325
-0.25950431383088024
-0.1839566359828108
-0.1551668220483795
-0.28423435636661815
-0.6277056005292431
-0.3094211649284417
-0.3787963509939285
-0.5259138134892384
-0.11920035638004056
-0.30573523965113975
-0.4910693870313798
-0.4449210916135955
-0.4023059963606292
-0.9411949605109851
-0.24171549059483816
-0.5820541802585761
-0.42493749063536634
-0.49584145367838045
-0.9305809271811807
-0.3762646161532589
-0.36711340212284926
-0.3754953566983895
0.13005685398331313
-0.5144312532477571
0.01587587301345461
-0.2182895250662506
-0.11774136689021264
-0.07811801016617098
0.1280113440442044
0.7050879919740953
0.4731068993162204
-0.00652795244559401
0.5808739470713254
0.6443465987446466
0.44567803030343023
0.6492466688784686
0.519907209465647
0.4179501751592923
0.4083332914650311
0.824743426482971
0.8871485510036874
0.7543770967309686
1.2614172456521442
1.0289568770671749
0.8407667716847196
1.2719098733674365
1.3162330547692336
1.1331255076880555
1.0551572072173867
1.3812095770360773
1.4607279752068294
1.5268949757096955
1.173578199861456
1.2693188522240684
0.9762860023617159
1.2902455704793272
1.1572552756994925
1.2265859658163998
1.4349018363823043
1.156010722598868
1.4085991139810874
1.0843991912474036
1.060677540125699
1.0645554520911151
1.1981944285308457
1.1608305549559979
1.099308751408478
0.7618475881919768
0.622715195918592
1.1180539334073396
0.523938620659361
0.8132057949040804
0.911834488401833
0.5677998052957915
0.2805251591228197
0.6217733427617387
0.46248091790042967
0.13313815040186122
0.13892749564450635
0.3370821651864676
-0.14365184299179992
-0.23638207428837876
-0.2111921237007321
-0.4941121063238969
-0.4561998250774806
-0.3306474537567504
-0.21394230114250062
-0.41769464707887627
-0.5470240691233361
-0.5935293010827536
-0.6116069478744093
-0.6163571776491691
-0.49461391931050547
-0.5648243390822433
-0.8688415083332648
-1.1160427675421472
-0.6914077830512808
-0.5491065836682129
-0.9052140296765891
-0.4556041256458824
-1.0035006006139437
-1.1870330152661992
-1.003849650465382
-0.9155293451083527
-0.8023834501634872
-1.067533600026326
-1.086243901232004
-0.7682235917452827
-0.9443406412410127
-0.5826709593219279
-0.75778695888252
-0.9046430959947214
-0.7122618880430872
-0.704560018572008
-0.48672546552404944
-0.46668275865577835
-0.6205061425101072
-0.4177572873603038
-0.07727786791497025
-0.8185952380618786
-0.5549929768916602
-0.26293728518517484
-0.2700281474277482
-0.24517175590872803
-0.21608394727278335
-0.2904579358341246
-0.01947599237524693
-0.0182167053507125
-0.025119467137238186
0.04806688868574602
0.4387473362816763
0.20635358556090613
0.30936867666695966
0.5574816808980714
0.05652903397445733
0.4272288507839035
0.6244196677190743
0.505452631476998
0.7897483820385217
0.601605854167997
0.5980588567112342
0.8310751876290203
0.6866397724397147
0.6923862331566103
0.9345752018365847
0.850240761859421
0.745812804519493
0.521015474331824
0.55877828514936
0.547650407637193
1.115607638244866
0.44556421985220485
0.9061765123238417
0.5447577272649973
0.5256105773326664
0.7541352079198922
0.34832059383653036
0.6943947697789655
0.37819639393258503
0.5041714191825971
0.5445328198439169
0.19149079901911276
0.22294312341717082
0.03823654207180249
0.32302733808716344
0.12087032842398665
0.3104319239103207
-0.07819982377334428
-0.4687726332444541
-0.45241850779720205
-0.23801458822191582
-0.41718279840416317
-0.6008421879987302
-0.2387597406603781
-0.715587087015221
-0.43727531781879064
-0.700476602738086
-0.958556043709391
-0.7810804101456472
-0.748036173891347
-0.6205602873742838
-1.12328319635922
-1.3833702143915774
-1.1721010267203145
-1.1891356858237048
-0.9795702181944782
-1.0998910595400542
-1.047997637138697
-1.4927821084213053
-1.1735095255148895
-1.2767999355438322
-1.8144228106229174
-1.5995362851288562
-1.6217725040425166
-1.4462049401101154
-1.1514705886521848
-1.5735908385424189
-1.365613123112409
-1.3699205785912696
-1.3460397992715882
-1.4260574259087744
-1.1065017073404164
-1.2480931697078028
-1.2970798749662458
-1.4481980209121899
-1.272665299714888
-1.1327829783768917
-1.004581988691678
-1.06412490958746
-0.7485347143421652
-0.7988896955324127
-0.8197641518542682
-0.6741848068485066
-0.686069244252175
-0.7535626406707865
-0.711441537305251
-0.7833569090455088
-0.34088415124720883
-0.5746749501841542
-0.4976477738668442
-0.62408948193551
-0.3167693632887336
-0.2626335739345509
-0.11509265836800253
-0.24270213037298383
-0.44051566173622764
-0.07115448531257196
0.03838445401591184
0.2184172516132964
0.39627284134624324
0.2737872878966706
0.318635834972923
0.5311756011420714
0.29334515820286294
0.6360073789235559
0.4934485555234078
0.1659753187443314
0.27935712409924107
0.6104267436178471
0.47575350343246015
0.5343000845774901
0.9038593706064355
0.5204347996723423
0.3678845665435281
0.6623699778433998
0.17074262153504627
0.3150634830171485
0.4031550904507238
0.3159925649363843
0.19227317917259462
0.6856152884160113
0.17166914489604645
0.1823452585521813
0.25495304168917676
-0.06753009880726635
0.039728346492366395
0.2584025745063344
-0.01915661512669109
0.07451858745068068
0.11393287658272755
-0.5770093641900472
-0.25452980419880455
-0.4102826471615644
-0.42931637343211193
-0.34960743048670845
-0.6361107697355313
-0.7500259019545097
-0.6866679875284359
-0.791712979654503
-0.9753769721797454
-0.8796363811156136
-0.860323795356704
-1.0757124744536064
-0.92806918248995
-1.0130858304643082
-1.1528803610405183
-1.3493599543242978
-1.02037445222996
-1.3960314324596421
-1.6603688116720563
-1.1892421298646274
-1.0233274153144687
-1.159124158996876
-1.498258381857603
-1.5072426530806522
-1.3742517240700958
-1.5630829411153215
-1.3306709104494685
-1.2718542119790053
-1.3864179470447853
-1.0816067996697905
-1.3622635084644672
-1.3867648767721144
-1.3769207625356088
-1.1772978093662583
-1.113301901492411
-1.2979367915833273
-1.0216346216749963
-0.963697077313846
-0.7972845538659414
-1.0137785511847697
-1.1234410276326332
-0.4939070403746823
-0.7250084390025149
-0.5428955294811733
-0.6012135769275693
-0.3452803488786789
-0.8554416854847731
-0.4306155372081023
-0.3507454712566201
0.07852044886383719
-0.34124069802483703
0.05592117882373859
-0.1912704451493021
0.24511051991593386
-0.06755738752051246
0.23844593972461953
0.2195086142499845
0.09348868463372095
0.21409805020560801
0.7279424892035389
0.5759134916835575
0.5284395493187737
0.6184520128181316
0.6877141317216113
0.6282871130071754
0.4750077466528315
0.8165352627140565
0.8945803471619445
0.66703797777285
0.8385722339847899
1.0645020479591372
0.8850712767509039
0.7386727436067565
1.0742078949286662
0.821782190279481
1.2089091995549581
1.1874511050619982
0.7839778820413574
0.9840178954177826
0.7584225529871702
1.1338686375980345
0.9423270632786928
0.5838819979308871
0.8130974943922108
0.7031321018875403
0.5765895514250153
0.2384893228882421
0.5803252532090294
0.06438616502441202
0.2725340148934976
0.43946334805241155
0.21128137319860726
0.08418565128989754
0.36754271802428123
-0.29001102633148146
-0.063812643550904
-0.2674457508651286
0.04138288830160657
-0.2316405243337828
-0.1381153391469903
-0.14849656703976957
0.025911554002886007
-0.5569394576625005
-0.3412730469785679
-0.7257384164330558
-0.7441859470896657
-0.3411622244101168
-0.21830033326460635
-0.5060064752883269
-0.6184276904204773
-0.5968194543982412
-0.7172386451364487
-0.840414118271206
-0.8892172966632672
-0.8726484448272637
-1.1860536120347656
-1.0340547459235352
-0.920001399174815
-0.6991304996405596
-1.087347801394176
-0.569313716510591
-0.6069714551213797
-0.6945595073868644
-0.706419779271158
-0.5768786024759643
-0.9021438812629429
-0.3738898964139671
-0.3922228659807906
-0.5389546863737477
-0.8092534796421149
-0.6800684986547072
-0.48476354312960046
-0.3029221377088662
-0.1558888153191935
0.11196912946668752
-0.28557504709435244
-0.1262246995658186
0.1607492042878576
-0.19986044027544259
0.03450102541373143
0.21171020780957778
-0.019622541436010832
0.47568670889865816
0.3668476389712504
0.1787724344566533
0.5967870220254026
0.2856460502822219
0.8189044435284831
0.9225770881888165
0.8223576004701516
0.96478782587973
1.1167160688294189
0.8319797560796967
0.823275770342913
0.9171962788477215
1.1746945110768316
1.1488065218340837
1.081719221971861
1.2589691087699737
0.8784940419728164
1.5399021609344503
1.2453367088869687
0.9373083072922821
1.4341520649548927
1.3629276494581408
1.4301648756057455
1.5742897229745698
1.5856929085322522
1.0158064430576563
1.130373758696837
1.6059390699320346
1.2837420819035663
1.1429635186427265
1.0483612849185282
1.5592349365113174
1.4046085721666028
1.1748693742108012
0.929739939258925
1.4512996763717139
0.6969937941114429
0.87504768121574
1.3150669918986493
0.5487436192354607
0.7867542397885638
1.1023196416167653
0.5167040517922923
0.3666891343035049
0.8075950891672928
0.5125951313778339
0.3829073603391148
0.5004335455490105
0.594446036114179
-0.12494384547957038
0.3763590314135744
-0.2603961292774905
-0.08648717843138692
0.15779725286191226
-0.21273530048828088
-0.23045054936476894
-0.1465629556880807
-0.22592578258364726
-0.19465223282355415
-0.4013952139134237
-0.25086044075869984
-0.5483317664502365
